time [days],flux [fnu],noisy_flux [fnu],error [fnu],flux [mag],noisy_flux [mag],error [mag]
0.0,2.461221639311046e-28,2.4145214451630815e-28,4.6700194147964834e-30,20.42212318801489,20.374687197893092,0.04743599012179712
1.0,2.474111534606683e-28,2.449452224239221e-28,2.4659310367462042e-30,20.41645181494794,20.391534475912756,0.024917339035184408
2.0,2.48537165525112e-28,2.4588549808475815e-28,2.6516674403538255e-30,20.41152164735086,20.384848901699808,0.026672745651051363
3.0,2.4917515785049767e-28,2.51192663485102e-28,2.0175056346043283e-30,20.408738144862003,20.42897998650473,0.020241841642725168
4.0,2.4936570832987676e-28,2.4933988595396033e-28,2.5822375916436377e-32,20.4079081725231,20.40764929194075,0.0002588805823521342
5.0,2.4938098670449863e-28,2.54377206545866e-28,4.996219841367391e-30,20.407841652645793,20.457927867190364,0.05008621454457161
6.0,2.4941278887221246e-28,2.524437527950219e-28,3.0309639228094363e-30,20.407703203584827,20.438084203056775,0.0303809994719473
7.0,2.4946538167759213e-28,2.5091346764201433e-28,1.4480859644222106e-30,20.407474282311075,20.42198617525073,0.014511892939655551
8.0,2.4929946684271025e-28,2.5071697799433943e-28,1.4175111516291856e-30,20.408196625717256,20.422411569391038,0.014214943673781818
9.0,2.4874005307470222e-28,2.474051063722077e-28,1.3349467024945106e-30,20.41063569335149,20.39721860706007,0.013417086291422436
10.0,2.4776434153957026e-28,2.492376998936872e-28,1.4733583541169246e-30,20.41490299375927,20.429769523229993,0.014866529470723045
11.0,2.46191584032868e-28,2.474256014161482e-28,1.2340173832802185e-30,20.421816993363056,20.4343480612723,0.012531067909245326
12.0,2.4389984540571302e-28,2.433048727456244e-28,5.949726600886066e-31,20.431971187402095,20.425872652785365,0.006098534616728688
13.0,2.4116428134075843e-28,2.433368206450876e-28,2.172539304329177e-30,20.444217536990138,20.46673889973352,0.02252136274338486
14.0,2.388191978005504e-28,2.352491076560643e-28,3.57009014448605e-30,20.454826911991884,20.417454600873626,0.037372311118258665
15.0,2.374132829006637e-28,2.328611435978095e-28,4.552139302854225e-30,20.461237466517126,20.413302708536893,0.04793475798023155
16.0,2.368822834894687e-28,2.3803283975379518e-28,1.1505562643264633e-30,20.463668547754924,20.475811248418076,0.012142700663150423
17.0,2.369367130219264e-28,2.3675790283929174e-28,1.788101826346551e-31,20.463419101807453,20.461532414637343,0.0018866871701105669
18.0,2.373797229599737e-28,2.3757934835006776e-28,1.996253900940696e-31,20.46139095337243,20.46349333797804,0.002102384605610668
19.0,2.38004516761602e-28,2.3497070818465423e-28,3.0338085769477635e-30,20.458537002463487,20.42666987008479,0.03186713237869544
20.0,2.384076363536529e-28,2.391460108642304e-28,7.38374510577469e-31,20.45669959492661,20.464442368206345,0.0077427732797342875
21.0,2.383216222656173e-28,2.4451802590774855e-28,6.196403642131229e-30,20.457091383803945,20.52209181875425,0.06500043495030774
22.0,2.3790119172084377e-28,2.347392632689901e-28,3.161928451853655e-30,20.45900845610386,20.425781127260084,0.03322732884377373
23.0,2.3786467081539337e-28,2.396197282106351e-28,1.755057395241763e-30,20.459175143428357,20.477621108829876,0.01844596540151881
24.0,2.387158925343689e-28,2.3730091340370637e-28,1.4149791306625255e-30,20.455296667080695,20.440478014710717,0.01481865236997999
25.0,2.402559247747843e-28,2.419474248677704e-28,1.6915000929860665e-30,20.448314734275822,20.465915758002623,0.01760102372679963
26.0,2.4149300527941516e-28,2.4377205449907495e-28,2.279049219659807e-30,20.442738609616008,20.466331934990205,0.023593325374195354
27.0,2.4171838415058683e-28,2.4067007313971777e-28,1.0483110108690533e-30,20.441725794010594,20.430883517630242,0.01084227638035148
28.0,2.4102480242471298e-28,2.384309017423588e-28,2.5939006823541738e-30,20.444845661177425,20.417940746659713,0.026904914517712448
29.0,2.400549893443795e-28,2.415054450907985e-28,1.450455746419e-30,20.449223157873618,20.464328610903156,0.015105453029536876
30.0,2.392584069030326e-28,2.399574508430221e-28,6.990439399895228e-31,20.452831983329713,20.46013626104599,0.0073042777162772125
31.0,2.3871200416517386e-28,2.412664659185491e-28,2.5544617533752354e-30,20.4553143524453,20.482066900587032,0.026752548141731773
32.0,2.382921889078108e-28,2.3805718628663143e-28,2.3500262117937687e-31,20.457225483410337,20.454759995323457,0.002465488086878641
33.0,2.3789942989552e-28,2.4299014257089956e-28,5.090712675379575e-30,20.45901649677239,20.512512975070123,0.053496478297733845
34.0,2.375640911064081e-28,2.386160822758912e-28,1.0519911694831024e-30,20.460548010793907,20.471618614568488,0.011070603774582051
35.0,2.3759626791980474e-28,2.367715466687326e-28,8.24721251072139e-31,20.460400963462842,20.451723204566495,0.008677758896348753
36.0,2.382200463979771e-28,2.4285325339723275e-28,4.633206999255663e-30,20.457554237761737,20.506177423229463,0.0486231854677261
37.0,2.3936228668662958e-28,2.3688218813923156e-28,2.480098547397998e-30,20.452360687185283,20.4264574989499,0.025903188235380993
38.0,2.4081513453679975e-28,2.415205195011558e-28,7.053849643560675e-31,20.445790556001562,20.453113444632635,0.007322888631074342
39.0,2.4243909731712353e-28,2.4284398287021293e-28,4.048855530894062e-31,20.438493354211186,20.442668480640567,0.004175126429379023
40.0,2.4410637114000272e-28,2.4639610138523782e-28,2.2897302452350817e-30,20.431052213533654,20.45450234138716,0.02345012785350294
41.0,2.455263372693138e-28,2.4032083517141575e-28,5.205502097898046e-30,20.42475478719027,20.371751287079118,0.05300350011115322
42.0,2.464988807788528e-28,2.4707433018652194e-28,5.754494076691253e-31,20.420462620709998,20.42629884809824,0.005836227388243108
43.0,2.4707881565654644e-28,2.412483852365047e-28,5.830430420041767e-30,20.417911222673105,20.358917593407995,0.058993629265108614
44.0,2.474606130593572e-28,2.4944319307863103e-28,1.9825800192738494e-30,20.416234788716988,20.436264036955357,0.020029248238368116
45.0,2.47777773235112e-28,2.461545631320399e-28,1.6232101030720712e-30,20.41484413588339,20.398466455170965,0.016377680712424472
46.0,2.4803328047294107e-28,2.43536301318183e-28,4.4969791547580524e-30,20.41372510684533,20.368398738281165,0.04532636856416377
47.0,2.479991794592577e-28,2.526448279744651e-28,4.6456485152074084e-30,20.41387439024198,20.460705679415362,0.046831289173384284
48.0,2.4750824209089246e-28,2.4620374517165203e-28,1.3044969192404282e-30,20.416025835916997,20.402849538147876,0.013176297769120127
49.0,2.4657892285624062e-28,2.483870376698221e-28,1.808114813581465e-30,20.420110122254588,20.438442131258412,0.018332009003823334
50.0,2.4516467027962237e-28,2.4634136379544435e-28,1.1766935158219526e-30,20.426355285303508,20.43835429717663,0.011999011873120581
51.0,2.4323210013662457e-28,2.4270782483073778e-28,5.242753058868023e-31,20.434947775880556,20.429559143936086,0.005388631944471089
52.0,2.4096689137292364e-28,2.3825280324202454e-28,2.7140881308991065e-30,20.44510656246138,20.416948252875407,0.02815830958597074
53.0,2.388435965468505e-28,2.448164731902029e-28,5.972876643352385e-30,20.45471599440505,20.51723469628472,0.06251870187967098
54.0,2.3717170817488187e-28,2.3511926823231126e-28,2.0524399425706023e-30,20.462342796241085,20.440708260250634,0.02163453599045219
55.0,2.3594850454367405e-28,2.3540222468692376e-28,5.4627985675028435e-31,20.467956927244497,20.462168801379843,0.005788125864654166
56.0,2.351051174825497e-28,2.3791772257577136e-28,2.8126050932216706e-30,20.471844793943873,20.50175274664327,0.0299079526993966
57.0,2.3459333560022793e-28,2.3312301217877663e-28,1.470323421451295e-30,20.474210824041805,20.458541970771854,0.015668853269950548
58.0,2.3436166476701e-28,2.3891501817634203e-28,4.553353409331994e-30,20.47528356420441,20.523855430830494,0.048571866626082996
59.0,2.3450104822296864e-28,2.3501165788453947e-28,5.106096615708062e-31,20.474638029105357,20.480081604575915,0.005443575470559384
60.0,2.3508788115399707e-28,2.3401704402720104e-28,1.0708371267960502e-30,20.47192439574999,20.460536769965756,0.011387625784233702
61.0,2.3604113898788666e-28,2.342096502158994e-28,1.8314887719872637e-30,20.467530745981588,20.44813276328416,0.019397982697427728
62.0,2.372121835232969e-28,2.3703745165365076e-28,1.7473186964610171e-31,20.462157522027304,20.46031600753329,0.0018415144940156613
63.0,2.3850523771483758e-28,2.374600790290057e-28,1.0451586858318906e-30,20.45625519789431,20.445299896704224,0.010955301190088607
64.0,2.398057349682193e-28,2.382331438247448e-28,1.5725911434745102e-30,20.450351087337406,20.433956659325887,0.016394428011520665
65.0,2.407886660843081e-28,2.3802875348024814e-28,2.7599126040599458e-30,20.445909897905196,20.417254971482148,0.028654926423048593
66.0,2.4122789981652024e-28,2.3804512562313084e-28,3.182774193389405e-30,20.443931160529154,20.410946022866696,0.03298513766245786
67.0,2.4118892318090718e-28,2.4035731204232576e-28,8.316111385814318e-31,20.44410660360037,20.435486689306487,0.00861991429388395
68.0,2.4087292183084954e-28,2.4312106557078323e-28,2.24814373993368e-30,20.445530048161274,20.46886334485197,0.023333296690696673
69.0,2.4041612910428006e-28,2.40716366118729e-28,3.002370144489286e-31,20.44759099905664,20.450713054714548,0.003122055657907849
70.0,2.3986201317098187e-28,2.3723332838768097e-28,2.628684783300901e-30,20.450096313974818,20.422698428534876,0.0273978854399413
71.0,2.3911157322977077e-28,2.3886563799088327e-28,2.4593523888748266e-31,20.45349850776379,20.45092716381371,0.00257134395008094
72.0,2.380875024519527e-28,2.3895737483136983e-28,8.698723794171524e-31,20.45815850181332,20.46729245855673,0.009133956743410936
73.0,2.3682089979178122e-28,2.3764605510529664e-28,8.25155313515398e-31,20.463949932831852,20.472660685496006,0.008710752664153533
74.0,2.3534073296448467e-28,2.3544533838111064e-28,1.046054166259574e-31,20.470757245694557,20.471868458098253,0.0011112124036953628
75.0,2.336642762303756e-28,2.289171012415096e-28,4.7471749888659935e-30,20.478519199142863,20.427728647571925,0.05079055157093881
76.0,2.318368826122764e-28,2.3214493680868088e-28,3.0805419640444283e-31,20.48704367890356,20.49036556402526,0.00332188512170033
77.0,2.2987662155025785e-28,2.299904835708689e-28,1.1386202061105795e-31,20.496262985571775,20.49750128048671,0.0012382949149329255
78.0,2.2779108335857323e-28,2.288170249198379e-28,1.0259415612646686e-30,20.50615819980778,20.517417876285652,0.011259676477872722
79.0,2.2575009225005055e-28,2.23369470954998e-28,2.3806212950525555e-30,20.51593015886305,20.489566700144994,0.026363458718055323
80.0,2.2442486680016804e-28,2.2789627021573295e-28,3.471403415564911e-30,20.5223225597633,20.560992555039,0.038669995275700794
81.0,2.2427236703940717e-28,2.2737349762621136e-28,3.1011305868041763e-30,20.52306058311342,20.557629382512804,0.03456879939938469
82.0,2.2506099747245793e-28,2.260194950708474e-28,9.58497598389444e-31,20.519249401660343,20.529896488551827,0.010647086891485287
83.0,2.2597423176286e-28,2.2302022125776607e-28,2.9540105050938867e-30,20.51485270347263,20.482171869887654,0.03268083358497552
84.0,2.264440013386798e-28,2.308279104792158e-28,4.3839091405359694e-30,20.512597948989498,20.56099743312928,0.04839948413978074
85.0,2.2641326642260553e-28,2.2610273231894377e-28,3.1053410366177536e-31,20.512745324392554,20.509316482649222,0.0034288417433340278
86.0,2.260690995988972e-28,2.2870278653311826e-28,2.6336869342210334e-30,20.51439698855055,20.543521788654743,0.029124800104192137
87.0,2.2555468006548597e-28,2.2240662637274517e-28,3.1480536927408077e-30,20.516870393090144,20.481978036923707,0.03489235616643849
88.0,2.249227114987031e-28,2.25547034106458e-28,6.24322607754886e-31,20.519916724010233,20.526856025555137,0.0069393015449051906
89.0,2.2408005179067734e-28,2.234574964755665e-28,6.2255531511086465e-31,20.52399200951956,20.51704632972638,0.006945679793179671
90.0,2.2295278299894318e-28,2.1998273037868773e-28,2.9700526202554336e-30,20.52946775554383,20.496164149951817,0.03330360559201353
91.0,2.2166231180970394e-28,2.1703265275335646e-28,4.6296590563475036e-30,20.5357703540932,20.48355512839076,0.05221522570244196
92.0,2.206490734701359e-28,2.2095806724001562e-28,3.089937698797344e-31,20.5407447296588,20.544245693485887,0.0035009638270875817
93.0,2.2021223848231012e-28,2.1707356042008066e-28,3.1386780622294772e-30,20.542896371021524,20.50726395018219,0.03563242083933508
94.0,2.202161283759655e-28,2.194730953397866e-28,7.430330361788896e-31,20.54287719242772,20.534441922022477,0.00843527040524413
95.0,2.200591784304859e-28,2.1869783443528472e-28,1.361343995201187e-30,20.543651281924557,20.528185623948932,0.015465657975625175
96.0,2.1932321270250307e-28,2.180531208011732e-28,1.2700919013298775e-30,20.547288502713343,20.532811103289,0.014477399424344907
97.0,2.1807955827329752e-28,2.2093266918192435e-28,2.853110908626835e-30,20.553462602962604,20.5861698283809,0.03270722541829567
98.0,2.1677474063642527e-28,2.1657392495495714e-28,2.008156814681165e-31,20.559978311806944,20.557662362992076,0.0023159488148682033
99.0,2.15717739771527e-28,2.159870964255233e-28,2.693566539963064e-31,20.56528534693197,20.568406980023916,0.0031216330919467956
100.0,2.1491315469360833e-28,2.160350203322267e-28,1.1218656386183623e-30,20.56934250203457,20.5823927227181,0.013050220683533238
101.0,2.141535521684129e-28,2.1740516454592334e-28,3.25161237751047e-30,20.573186793895278,20.611145683026304,0.03795888913102599
102.0,2.1328925509298363e-28,2.149426800730948e-28,1.6534249801111998e-30,20.577577556305688,20.59695763454018,0.019380078234489447
103.0,2.123477198003425e-28,2.1203952776212303e-28,3.0819203821947088e-31,20.58238099530635,20.57875260647188,0.003628388834469766
104.0,2.115806598307229e-28,2.1328910543143083e-28,1.708445600707944e-30,20.5863100820537,20.6064967758904,0.020186693836700405
105.0,2.111654659133715e-28,2.1163643829910422e-28,4.7097238573276e-31,20.588442762570697,20.59401863151896,0.0055758689482632035
106.0,2.1103917720898843e-28,2.122029408857269e-28,1.1637636767384608e-30,20.589092287510436,20.602878396944348,0.013786109433913375
107.0,2.109356503073168e-28,2.1074953072701783e-28,1.8611958029898056e-31,20.58962503449076,20.587419153455148,0.0022058810356122686
108.0,2.106704834590887e-28,2.074457403214757e-28,3.224743137612982e-30,20.590990770244236,20.552723151014142,0.0382676192300951
109.0,2.102073944062983e-28,2.1270294256510033e-28,2.4955481588020148e-30,20.59338002746105,20.623059622770366,0.029679595309317557
110.0,2.0950255602635943e-28,2.0858430344234286e-28,9.18252584016583e-31,20.597026685188453,20.58606915080996,0.010957534378495237
111.0,2.0852958908251373e-28,2.0591729114376264e-28,2.612297938751079e-30,20.60208078141953,20.57076270864333,0.03131807277620217
112.0,2.0738558977753396e-28,2.0373168104580095e-28,3.653908731733001e-30,20.608053559808653,20.564006276489057,0.04404728331959577
113.0,2.063419893334046e-28,2.0469715296957342e-28,1.644836363831199e-30,20.613530966903753,20.59360244473111,0.019928522172642894
114.0,2.055796933765768e-28,2.0544802726971875e-28,1.3166610685803986e-31,20.617549465072806,20.615948308549324,0.001601156523480854
115.0,2.050977271801829e-28,2.032985422802825e-28,1.7991848999003536e-30,20.62009788075355,20.598167056304195,0.02193082444935787
116.0,2.0486847451282597e-28,2.0702984333009737e-28,2.161368817271381e-30,20.62131216596001,20.647687244195094,0.026375078235085735
117.0,2.0487332859175563e-28,2.032180405794303e-28,1.655288012325311e-30,20.62128644122705,20.60108752095149,0.020198920275559015
118.0,2.05040442735225e-28,2.069969207286373e-28,1.9564779934122707e-30,20.62040117267237,20.644255954286585,0.02385478161421465
119.0,2.0524043498812934e-28,2.042668021194785e-28,9.736328686508466e-31,20.619342683921662,20.607483021999936,0.011859661921725603
120.0,2.053891355697535e-28,2.0585531663723197e-28,4.661810674784509e-31,20.61855633231053,20.62423069607599,0.005674363765459836
121.0,2.0548256291550617e-28,2.066823804533252e-28,1.1998175378190245e-30,20.618062565259066,20.63266012430246,0.014597559043396616
122.0,2.0557885914061185e-28,2.049383304662662e-28,6.4052867434567505e-31,20.61755387096531,20.6097645404254,0.007789330539911769
123.0,2.0572101184406724e-28,2.060105954688904e-28,2.895836248231713e-31,20.616803370642888,20.620322501020325,0.0035191303774389166
124.0,2.0587988254932925e-28,2.0684752270456002e-28,9.676401552307677e-31,20.615965220446952,20.627715277607088,0.01175005716013704
125.0,2.058908311758919e-28,2.0669440688317756e-28,8.035757072856658e-31,20.615907482876693,20.625664786088016,0.00975730321132141
126.0,2.0563748320962158e-28,2.0425002078177877e-28,1.3874624278428074e-30,20.617244300220808,20.600376480135346,0.01686782008546156
127.0,2.0515843147419993e-28,2.028183995670616e-28,2.3400319071383682e-30,20.619776574911388,20.59126163781712,0.028514937094270037
128.0,2.0458786844676844e-28,2.041720384250605e-28,4.158300217079308e-31,20.622800306115263,20.617718992828397,0.0050813132868643834
129.0,2.0401714425275085e-28,2.021024580129034e-28,1.9146862398474468e-30,20.62583333950492,20.602371019133997,0.023462320370921844
130.0,2.0346234647190834e-28,2.0838350285850914e-28,4.921156386600802e-30,20.62878987804444,20.689257533017646,0.06046765497320479
131.0,2.028709811692729e-28,2.0337794068241356e-28,5.069595131406762e-31,20.63195017590314,20.638197490208746,0.006247314305608793
132.0,2.0220296117084223e-28,1.993566506663489e-28,2.846310504493341e-30,20.635531221630835,20.600339965182215,0.035191256448619465
133.0,2.0147592048453538e-28,1.9799799935265985e-28,3.477921131875528e-30,20.639442128467113,20.596286585071265,0.043155543395848164
134.0,2.007661687749643e-28,2.005156861963404e-28,2.504825786238898e-31,20.643273671449737,20.640154587938902,0.003119083510836079
135.0,2.0012613773784307e-28,1.9819247051203506e-28,1.93366722580802e-30,20.64674046514116,20.62258485948583,0.02415560565533229
136.0,1.995400278356324e-28,1.979697787600406e-28,1.570249075591808e-30,20.649924928835127,20.630251569401633,0.01967335943349263
137.0,1.9891472917299666e-28,1.9773166460923164e-28,1.1830645637650098e-30,20.653332642971765,20.638463651511408,0.01486899146035706
138.0,1.9818535161818361e-28,1.9879407225443044e-28,6.087206362468373e-31,20.65732112117695,20.664999799637247,0.007678678460297805
139.0,1.9733062224573296e-28,1.9561867957666404e-28,1.7119426690689227e-30,20.662013786611016,20.64032502576911,0.02168876084190655
140.0,1.9625296654917312e-28,1.9922582415553494e-28,2.972857606361806e-30,20.667959424403282,20.705829649483636,0.03787022508035474
141.0,1.9488633638470655e-28,1.9584503606815671e-28,9.586996834501537e-31,20.675546521250833,20.68784471132966,0.01229819007882723
142.0,1.9334471422920272e-28,1.9552717921080227e-28,2.182464981599562e-30,20.684169241062474,20.712389109786326,0.028219868723852643
143.0,1.9200844187570915e-28,1.9136295964014092e-28,6.4548223556823875e-31,20.691699191529665,20.6832948444439,0.008404347085766053
144.0,1.9113199426312485e-28,1.9252110032505876e-28,1.389106061933924e-30,20.696666521911098,20.714835982069893,0.018169460158794625
145.0,1.9065947496139029e-28,1.8971537161794857e-28,9.441033434417184e-31,20.699354018184014,20.68697457384178,0.01237944434223509
146.0,1.9034692209601235e-28,1.8935362903023067e-28,9.932930657816796e-31,20.701135353303762,20.688089528148776,0.013045825154985374
147.0,1.900261764967614e-28,1.8936343747696618e-28,6.627390197952182e-31,20.70296642491977,20.69424737589172,0.008719049028049475
148.0,1.8961462738327593e-28,1.9262650317566854e-28,3.011875792392598e-30,20.70532040764774,20.7450308961522,0.03971048850446238
149.0,1.8894847212518685e-28,1.8893540947121737e-28,1.306265396947344e-32,20.709141538810158,20.708968705261643,0.00017283354851394146
150.0,1.879216175717741e-28,1.883538841497211e-28,4.32266577947007e-31,20.715058144850925,20.7208087682163,0.005750623365376109
151.0,1.8665656168306276e-28,1.883279621200538e-28,1.671400436991037e-30,20.722391845945364,20.74477788506877,0.022386039123406556
