time [days],flux [fnu],noisy_flux [fnu],error [fnu],flux [mag],noisy_flux [mag],error [mag]
0.0,5.83422783673953e-28,5.9356221941944005e-28,1.0139435745487076e-29,19.485041537321504,19.528489599469662,0.04344806214815876
1.0,5.848236206298494e-28,5.9450346292239345e-28,9.679842292544078e-30,19.482437737090105,19.52381706049243,0.041379323402323344
2.0,5.862942918932303e-28,5.903978298539845e-28,4.103537960754162e-30,19.479710835113387,19.49720860891698,0.01749777380359288
3.0,5.875709694170996e-28,5.797736347148223e-28,7.79733470227732e-30,19.47734917470537,19.444173034680905,0.03317614002446664
4.0,5.885445864412966e-28,5.96136532274791e-28,7.591945833494452e-30,19.47555157669055,19.507800390155133,0.03224881346458404
5.0,5.8928517394115745e-28,5.938277888978461e-28,4.5426149566886846e-30,19.474186213385252,19.493457930872676,0.019271717487424362
6.0,5.898904444316004e-28,5.984280919196562e-28,8.537647488055856e-30,19.4730715971523,19.509254788322153,0.03618319116985553
7.0,5.903886847400405e-28,5.875131696723064e-28,2.875515067734125e-30,19.47215493674494,19.45997857250364,0.012176364241297534
8.0,5.906623806125303e-28,5.963020348851748e-28,5.6396542726444916e-30,19.471651721377047,19.495521763120674,0.023870041743627054
9.0,5.9057379597248515e-28,5.929512531458636e-28,2.377457173378434e-30,19.471814566967065,19.4818787502647,0.010064183297633138
10.0,5.900358896450439e-28,5.972445701787333e-28,7.208680533689313e-30,19.472803927671116,19.50334732621771,0.030543398546594935
11.0,5.888816374962507e-28,5.888872196334562e-28,5.582137205461263e-33,19.474929969092937,19.474953667137033,2.369804409760019e-05
12.0,5.8694524817731265e-28,5.9256205772820036e-28,5.616809550887686e-30,19.47850602253467,19.502429930123707,0.023923907589038364
13.0,5.84274733706764e-28,5.808990212943579e-28,3.375712412406138e-30,19.483457234630727,19.46901320591589,0.014444028714838887
14.0,5.81391652655496e-28,5.780204733704304e-28,3.371179285065566e-30,19.488828019785494,19.474331856701333,0.01449616308416093
15.0,5.788187325894325e-28,5.70421750394145e-28,8.396982195287529e-30,19.493643555110147,19.457375800964897,0.03626775414525014
16.0,5.767985115782216e-28,5.77602958988904e-28,8.044474106823999e-31,19.497439672447463,19.500926364050052,0.0034866916025896593
17.0,5.753566019702872e-28,5.8477950172644775e-28,9.42289975616054e-30,19.500157247996523,19.54110098499325,0.0409437369967259
18.0,5.744697443797477e-28,5.69678065595717e-28,4.791678784030651e-30,19.50183209844418,19.480979482484376,0.020852615959802222
19.0,5.740557118005812e-28,5.812648563681619e-28,7.209144567580695e-30,19.50261489377222,19.534010559817283,0.03139566604506258
20.0,5.738256414487783e-28,5.782748547910107e-28,4.44921334223241e-30,19.503050122924137,19.52243411790822,0.01938399498408247
21.0,5.735024688856998e-28,5.694558948291817e-28,4.0465740565180434e-30,19.503661770382685,19.486022029160733,0.01763974122195337
22.0,5.730238990321517e-28,5.624137369598567e-28,1.0610162072294969e-29,19.504568161480556,19.458277936543098,0.04629022493745782
23.0,5.727472676633003e-28,5.753107790838683e-28,2.563511420568032e-30,19.505092434925555,19.516281975082713,0.011189540157156357
24.0,5.7307057473447025e-28,5.769849344182533e-28,3.914359683783037e-30,19.504479726362728,19.521555981262033,0.01707625489930598
25.0,5.7406911478912695e-28,5.7999224860439835e-28,5.9231338152713574e-30,19.502589544420697,19.528384059674522,0.025794515253825773
26.0,5.752257813604312e-28,5.8489197778119615e-28,9.666196420764985e-30,19.500404143264728,19.542414588267313,0.04201044500258688
27.0,5.759764375355611e-28,5.786334857126561e-28,2.6570481770950256e-30,19.498988206622485,19.51052100555287,0.011532798930385836
28.0,5.760977577607225e-28,5.766506463751795e-28,5.528886144570075e-31,19.498759537736674,19.50115882070128,0.002399282964605138
29.0,5.757857754519911e-28,5.757232202212181e-28,6.255523077296917e-32,19.4993476709747,19.499076062880857,0.0002716080938429896
30.0,5.752973226855153e-28,5.762649276946086e-28,9.676050090932835e-31,19.500269117715717,19.50447392178371,0.004204804067992431
31.0,5.74764986133432e-28,5.650779284900669e-28,9.687057643365093e-30,19.501274240837407,19.45913937755819,0.042134863279216166
32.0,5.742122598272029e-28,5.708911939274445e-28,3.321065899758404e-30,19.50231884813559,19.48785962228783,0.014459225847763199
33.0,5.736270846942615e-28,5.764011684714538e-28,2.7740837771922336e-30,19.503425877418106,19.515515978509963,0.012090101091856556
34.0,5.730470002051642e-28,5.668420097304904e-28,6.204990474673758e-30,19.50452439144864,19.477454227603214,0.027070163845427278
35.0,5.726902204170116e-28,5.796878951782189e-28,6.997674761207283e-30,19.505200582705555,19.535747964657144,0.030547381951589108
36.0,5.7278256916511415e-28,5.703396113154777e-28,2.4429578496364465e-30,19.50502551721222,19.494362841787247,0.010662675424975367
37.0,5.734085718189062e-28,5.72139726373126e-28,1.2688454457801737e-30,19.503839547806635,19.49830751747024,0.005532030336393804
38.0,5.745102668731809e-28,5.805378428242639e-28,6.027575951082953e-30,19.501755514451734,19.52798470607214,0.026229191620406225
39.0,5.760166407991131e-28,5.73960069996088e-28,2.056570803025092e-30,19.49891242467619,19.489986593991105,0.008925830685082261
40.0,5.778383023846455e-28,5.796212640071506e-28,1.782961622505089e-30,19.495484185119444,19.503198114843155,0.007713929723709444
41.0,5.797408818373063e-28,5.812763025453243e-28,1.5354207080179833e-30,19.491915183046128,19.4985363337883,0.006621150742172738
42.0,5.815015541230949e-28,5.847440976411718e-28,3.2425435180768724e-30,19.48862280059256,19.50256319118604,0.01394039059348101
43.0,5.83020222605688e-28,5.882282694537168e-28,5.2080468480287834e-30,19.485790952666175,19.508123140496437,0.02233218783026298
44.0,5.843226725745099e-28,5.813745796280912e-28,2.9480929464187784e-30,19.483368155253906,19.47075486346844,0.012613291785468295
45.0,5.854580362006561e-28,5.81118830624837e-28,4.339205575819162e-30,19.48126057086257,19.46273146498515,0.018529105877419242
46.0,5.86430081495157e-28,5.814016010530003e-28,5.028480442156608e-30,19.479459400605776,19.45802257206973,0.02143682853604661
47.0,5.871100762718107e-28,5.883906321414753e-28,1.2805558696646589e-30,19.478201164957333,19.483653957889267,0.005452792931933125
48.0,5.873533588497362e-28,5.899632858431198e-28,2.6099269933836763e-30,19.477751358349963,19.488860203451722,0.011108845101758325
49.0,5.870882469375015e-28,5.8522470311142865e-28,1.8635438260728803e-30,19.478241534455595,19.470305999057835,0.007935535397761352
50.0,5.862354787588669e-28,5.8442622180535915e-28,1.809256953507773e-30,19.479819754393635,19.472104181816306,0.00771557257732931
51.0,5.847173838486111e-28,5.870773664327219e-28,2.3599825841107774e-30,19.482634985616738,19.49272525593065,0.010090270313913735
52.0,5.825789682479303e-28,5.812802634878108e-28,1.2987047601195372e-30,19.4866129948542,19.481039910212882,0.00557308464132043
53.0,5.801317539044792e-28,5.785287315304487e-28,1.6030223740305155e-30,19.49118340619797,19.48427539623626,0.006908009961709745
54.0,5.776798654276099e-28,5.775059958862224e-28,1.7386954138751227e-31,19.495781922959136,19.495029475315583,0.0007524476435525871
55.0,5.753864639915166e-28,5.799843680311912e-28,4.5979040396745124e-30,19.500100897837108,19.520078357889687,0.019977460052580862
56.0,5.733461887467396e-28,5.720958579323738e-28,1.2503308143658808e-30,19.50395767517339,19.498505773517344,0.0054519016560437145
57.0,5.7161984041369295e-28,5.65208413611915e-28,6.411426801777985e-30,19.507231764115517,19.47919115762984,0.028040606485675447
58.0,5.702437594337519e-28,5.696578152531671e-28,5.859441805848186e-31,19.509848647014795,19.50727981495442,0.002568832060374747
59.0,5.693052566660569e-28,5.6722690728526705e-28,2.078349380789842e-30,19.511637015306356,19.502510323797477,0.00912669150887957
60.0,5.688973643985886e-28,5.753005633109735e-28,6.403198912384996e-30,19.512415195593757,19.54055383409472,0.028138638500962983
61.0,5.690335066745251e-28,5.754580787795904e-28,6.424572105065351e-30,19.512155400201177,19.54038120777537,0.02822580757419294
62.0,5.6963316045563795e-28,5.621431303227912e-28,7.490030132846744e-30,19.511011841863244,19.478139676701478,0.032872165161766664
63.0,5.706204179937794e-28,5.7112677523330595e-28,5.063572395264958e-31,19.509131731086683,19.511350181494166,0.002218450407482684
64.0,5.7189703798079215e-28,5.589073977880478e-28,1.2989640192744385e-29,19.506705381958756,19.44992225785565,0.056783124103104106
65.0,5.731966686426306e-28,5.71599923334518e-28,1.5967453081125752e-30,19.504240855850398,19.49727664358494,0.006964212265459335
66.0,5.7426440845169465e-28,5.736006669286543e-28,6.637415230403563e-31,19.502220248571074,19.49933071931734,0.002889529253736557
67.0,5.749867691137796e-28,5.789952427428807e-28,4.008473629101182e-30,19.500855371610648,19.518283918859133,0.0174285472484845
68.0,5.753840677888169e-28,5.754862755724719e-28,1.0220778365495044e-31,19.50010541940583,19.500549504449964,0.00044408504413292056
69.0,5.755007162996575e-28,5.905739685671537e-28,1.5073252267496132e-29,19.49988532871799,19.565364188433463,0.06547885971547444
70.0,5.753581286228772e-28,5.844262641112417e-28,9.068135488364498e-30,19.50015436710528,19.53955650221576,0.03940213511047949
71.0,5.749138131174437e-28,5.748639372439518e-28,4.987587349183697e-32,19.50099314172383,19.500776257591138,0.00021688413269019984
72.0,5.741099740167867e-28,5.724159193755956e-28,1.6940546411910876e-30,19.50251227016405,19.495135396751895,0.007376873412155501
73.0,5.729326571409871e-28,5.847129187723273e-28,1.1780261631340206e-29,19.504741055687248,19.55614439901439,0.05140334332714308
74.0,5.71392630584478e-28,5.667934311352595e-28,4.5991994492185136e-30,19.507663412845787,19.487540649604536,0.020122763241249664
75.0,5.694963208488217e-28,5.705177730899289e-28,1.0214522411071693e-30,19.51127269318615,19.515756709165327,0.004484015979175762
76.0,5.6726471163436e-28,5.619281958766661e-28,5.336515757693868e-30,19.515535580393504,19.49201694946052,0.02351863093298499
77.0,5.647272223543549e-28,5.600653832623627e-28,4.661839091992186e-30,19.520403192100478,19.49976562183887,0.020637570261607546
78.0,5.619012173877048e-28,5.652990211237065e-28,3.397803736001689e-30,19.525850067457217,19.540967509949148,0.015117442491930245
79.0,5.589003610792095e-28,5.596804495391535e-28,7.800884599439871e-31,19.531664024516957,19.53515341419295,0.0034893896759955307
80.0,5.562164400200997e-28,5.552946967899812e-28,9.217432301184506e-31,19.536890447235486,19.532747531080016,0.004142916155467924
81.0,5.543366580326591e-28,5.4530085726966435e-28,9.03580076299473e-30,19.540566001900196,19.49981549121296,0.04075051068723647
82.0,5.533948154871766e-28,5.506109323489595e-28,2.7838831382171362e-30,19.54241228472536,19.529835896854042,0.012576387871317367
83.0,5.530144590286148e-28,5.564189735438026e-28,3.4045145151877866e-30,19.543158783879974,19.55854949591112,0.015390712031146123
84.0,5.527789646211675e-28,5.544652633935152e-28,1.6862987723477844e-30,19.54362122976287,19.551247690248317,0.007626460485446678
85.0,5.524740137597883e-28,5.570455610794645e-28,4.571547319676197e-30,19.544220361736723,19.56490706919182,0.020686707455094315
86.0,5.520444042265966e-28,5.56907657116289e-28,4.8632528896924155e-30,19.545064969920745,19.567088800125607,0.022023830204862496
87.0,5.514869248420787e-28,5.524994037560086e-28,1.0124789139298337e-30,19.54616194938427,19.5507517178281,0.00458976844382921
88.0,5.507880768906896e-28,5.466023813535365e-28,4.1856955371531285e-30,19.54753867410889,19.528540007866955,0.01899866624193387
89.0,5.49870127915355e-28,5.384834557845763e-28,1.1386672130778612e-29,19.549349682582474,19.497579857524205,0.0517698250582701
90.0,5.486496633286212e-28,5.463585626197968e-28,2.2911007088244167e-30,19.551762207407638,19.541322482105866,0.010439725301772994
91.0,5.471508244764466e-28,5.51373049129614e-28,4.222224653167359e-30,19.554732355057467,19.574024223333492,0.019291868276025578
92.0,5.456559336414349e-28,5.528841215780216e-28,7.228187936586621e-30,19.557702794436707,19.590819761974974,0.03311696753826769
93.0,5.444541487470892e-28,5.434697614669054e-28,9.843872801838126e-31,19.56009672128837,19.555576656180733,0.00452006510763628
94.0,5.436171977203871e-28,5.422210299582508e-28,1.3961677621363581e-30,19.561767031261095,19.55534630097519,0.0064207302859027905
95.0,5.428459908913713e-28,5.385524692582557e-28,4.2935216331156176e-30,19.56330841310455,19.54353520990715,0.01977320319740002
96.0,5.41809114144521e-28,5.385303951794226e-28,3.278718965098458e-30,19.56538423418651,19.55025566362769,0.015128570558818154
97.0,5.403911123873796e-28,5.408783289861737e-28,4.872165987940947e-31,19.56822950567969,19.570483505549532,0.0022539998698425726
98.0,5.387695956890154e-28,5.457488042879304e-28,6.979208598914969e-30,19.571492301846746,19.603877242713676,0.032384940866927905
99.0,5.3715578292118455e-28,5.3136235041574295e-28,5.793432505441584e-30,19.574749360930163,19.547785895723035,0.026963465207129864
100.0,5.356380830247493e-28,5.369565686388414e-28,1.3184856140920975e-30,19.577821382270255,19.583975190484594,0.006153808214338526
101.0,5.341568319185473e-28,5.449091426275237e-28,1.0752310708976471e-29,19.580828031413244,19.63115178497433,0.05032375356108931
102.0,5.326265831550613e-28,5.19628204853734e-28,1.299837830132724e-29,19.583942904780944,19.522932157700268,0.06101074708067602
103.0,5.310372822862733e-28,5.32032142000778e-28,9.948597145046464e-31,19.587187468846153,19.591871036966932,0.004683568120779955
104.0,5.29537529208391e-28,5.254413995515426e-28,4.09612965684841e-30,19.590258138227682,19.570919897636067,0.01933824059161463
105.0,5.282875986284096e-28,5.272203078118696e-28,1.0672908165400302e-30,19.592823960271406,19.587773251058703,0.005050709212704557
106.0,5.273315869967652e-28,5.19219970977236e-28,8.1116160195292e-30,19.59479053446513,19.55633457895464,0.03845595551048869
107.0,5.2654190615076776e-28,5.155110999030241e-28,1.1030806247743587e-29,19.596417646733812,19.54404381798966,0.052373828744150676
108.0,5.2577694275416135e-28,5.270212457168893e-28,1.2443029627278872e-30,19.5979961580418,19.603912654475675,0.005916496433876944
109.0,5.249507720917683e-28,5.365092633114856e-28,1.1558491219717296e-29,19.599703552967533,19.654749148831982,0.05504559586444764
110.0,5.239714620856649e-28,5.201619108137643e-28,3.8095512719006636e-30,19.60173091515627,19.58355458520532,0.018176329950951767
111.0,5.227620707990664e-28,5.254138599122337e-28,2.651789113167363e-30,19.604239825874462,19.61692145132748,0.01268162545301909
112.0,5.2132362773815625e-28,5.116915020662673e-28,9.632125671889004e-30,19.6072314781881,19.561040757302884,0.04619072088521808
113.0,5.198161241306583e-28,5.292554138407993e-28,9.439289710140946e-30,19.610375633209276,19.655772886545382,0.04539725333610629
114.0,5.184045833024066e-28,5.1323306736110885e-28,5.171515941297748e-30,19.613327918624194,19.588388343879533,0.024939574744659382
115.0,5.171745807109227e-28,5.085691193607656e-28,8.605461350157138e-30,19.615907072434783,19.57430863705573,0.041598435379054347
116.0,5.161775047532327e-28,5.088653542012484e-28,7.312150551984296e-30,19.61800231531928,19.582587412090014,0.03541490322926796
117.0,5.154502825464265e-28,5.197445555433621e-28,4.294272996935654e-30,19.619533044947428,19.64036081991595,0.020827774968524098
118.0,5.149873588091242e-28,5.141183991109573e-28,8.689596981668712e-31,19.620508578206827,19.616290223701114,0.004218354505711974
119.0,5.147087719325983e-28,5.167479360614788e-28,2.0391641288804494e-30,19.621096075540006,19.631000531419122,0.009904455879117405
120.0,5.145368940564124e-28,5.1263292641759635e-28,1.9039676388159857e-30,19.621458698460607,19.612207818393458,0.009250880067150443
121.0,5.144313218955688e-28,5.038890429988514e-28,1.0542278896717389e-29,19.62168149157679,19.570448807795643,0.05123268378114769
122.0,5.143926145084635e-28,5.083784307455559e-28,6.014183762907667e-30,19.621763188765414,19.592533648948564,0.02922953981685089
123.0,5.144339973707559e-28,5.175436562142263e-28,3.1096588434703856e-30,19.621675844850788,19.63678788477896,0.015112039928171943
124.0,5.145370001907161e-28,5.148325031416273e-28,2.9550295091117295e-31,19.621458474504177,19.622894245647952,0.0014357711437741265
125.0,5.145856267729061e-28,5.164025867342989e-28,1.8169599613928815e-30,19.621355871297418,19.63018316779998,0.008827296502564051
126.0,5.144613733640654e-28,5.145559042894353e-28,9.453092536994402e-32,19.621618068116767,19.62207743654686,0.0004593684300912907
127.0,5.1412135323901705e-28,5.148992735902087e-28,7.779203511916663e-31,19.622335895013943,19.626118661214427,0.00378276620048306
128.0,5.136122574102669e-28,5.233168160001878e-28,9.704558589920913e-30,19.62341155083067,19.670648344977938,0.047236794147267766
129.0,5.129906973097964e-28,5.0680916741236655e-28,6.181529897429872e-30,19.624726276029687,19.594601315041864,0.03012496098782485
130.0,5.1228541218107565e-28,5.114661546043908e-28,8.192575766847839e-31,19.626220027249715,19.622221974810564,0.003998052439150873
131.0,5.114866855771765e-28,5.154228379756025e-28,3.9361523984259176e-30,19.627914167125994,19.647152949431657,0.01923878230566377
132.0,5.105741707525719e-28,5.114711362063946e-28,8.969654538226765e-31,19.629852898346474,19.634244843264586,0.004391944918113341
133.0,5.095520387825816e-28,5.151430059118906e-28,5.59096712930896e-30,19.63202864100824,19.659459436607975,0.027430795599733358
134.0,5.084728299574884e-28,5.212806848620622e-28,1.2807854904573794e-29,19.634330621183416,19.697302790736924,0.06297216955350698
135.0,5.073889127103155e-28,4.95580991568182e-28,1.1807921142133483e-29,19.636647567664205,19.57846773338748,0.05817983427672473
136.0,5.0631741094656635e-28,4.949329694213364e-28,1.138444152522993e-29,19.638942845230275,19.582730865950584,0.056211979279690294
137.0,5.052158238423245e-28,5.120308487365954e-28,6.815024894270891e-30,19.641307638463864,19.675030972990683,0.03372333452681912
138.0,5.04034057465071e-28,5.036632136966458e-28,3.708437684251287e-31,19.643850293462442,19.642010914937654,0.0018393785247876218
139.0,5.027340473760651e-28,5.07523031381017e-28,4.788984004951985e-30,19.64665425357577,19.670468952569937,0.023814698994166366
140.0,5.0122775801519325e-28,5.0020102202153755e-28,1.0267359936557076e-30,19.64991221441113,19.644791109398305,0.00512110501282625
141.0,4.994283764660666e-28,5.069331467866412e-28,7.504770320574527e-30,19.65381696396989,19.691383763706412,0.037566799736520544
142.0,4.973518729501267e-28,4.922054246830386e-28,5.146448267088018e-30,19.65834060558354,19.632471354118973,0.025869251464566676
143.0,4.9524438891339e-28,4.922640909833676e-28,2.980297930022378e-30,19.662951090724203,19.64790650871207,0.015044582012132513
144.0,4.933565145011918e-28,4.904115417582934e-28,2.9449727428983542e-30,19.667097832010597,19.652174684872893,0.0149231471377036
145.0,4.91786218038686e-28,4.9557143050589355e-28,3.7852124672075524e-30,19.670559115556983,19.689801279775736,0.019242164218751
146.0,4.904608132584948e-28,4.971132925718495e-28,6.652479313354702e-30,19.673489215182318,19.707398546639183,0.03390933145686681
147.0,4.892842122420251e-28,4.937590130677415e-28,4.474800825716402e-30,19.67609699353898,19.698961009553372,0.022864016014392346
148.0,4.881755589358626e-28,4.837994915320744e-28,4.376067403788185e-30,19.67855991955331,19.65614960361427,0.022410315939040696
149.0,4.869741631909333e-28,4.990630225031986e-28,1.2088859312265259e-29,19.681235200049993,19.743296291921133,0.06206109187113818
150.0,4.855313659280778e-28,4.862734160161083e-28,7.420500880305437e-31,19.684456772219622,19.68827758658973,0.003820814370108399
151.0,4.83830957847987e-28,4.826960981357478e-28,1.1348597122392263e-30,19.68826586705186,19.682401940334113,0.005863926717747273
152.0,4.821170269036039e-28,4.855821773881218e-28,3.465150484517846e-30,19.692118825722574,19.710087235315846,0.01796840959327226
