time [days],flux [fnu],noisy_flux [fnu],error [fnu],flux [mag],noisy_flux [mag],error [mag]
0.0,6.134672295547943e-28,6.0507443432700215e-28,8.392795227792142e-30,19.430521579097288,19.39631928261161,0.03420229648567767
1.0,6.147562391501258e-28,6.300864790055604e-28,1.533023985543463e-29,19.42824263729978,19.49058539561252,0.062342758312742094
2.0,6.161185415910585e-28,6.148462139549012e-28,1.2723276361573006e-30,19.425839303168576,19.420676629306858,0.005162673861720076
3.0,6.173412244925557e-28,6.152342398459229e-28,2.1069846466328977e-30,19.423686802431384,19.415154306288894,0.008532496142489125
4.0,6.183302316402466e-28,6.240655315493905e-28,5.7352999091438666e-30,19.421948798221642,19.445137458648006,0.023188660426362372
5.0,6.19130676491026e-28,6.15168673430071e-28,3.962003060954997e-30,19.420544192920733,19.40454594242453,0.015998250496203705
6.0,6.198129853201202e-28,6.134122127403295e-28,6.400772579790677e-30,19.41934832341302,19.393530969100553,0.025817354312465776
7.0,6.2039364963161115e-28,6.1255709509624635e-28,7.836554535364843e-30,19.41833164071823,19.386752680569224,0.0315789601490045
8.0,6.207753763058651e-28,6.163939893832248e-28,4.381386922640303e-30,19.41766379536442,19.400018979341297,0.017644816023121096
9.0,6.208426016563364e-28,6.221664133750603e-28,1.32381171872384e-30,19.41754622458461,19.422876930447867,0.005330705863257704
10.0,6.205180978708427e-28,6.213557477728329e-28,8.376499019902518e-31,19.418113868649133,19.4214886690976,0.0033748004484657423
11.0,6.196579776293951e-28,6.191825270007397e-28,4.754506286554692e-31,19.419619886794088,19.41770168899054,0.00191819780354634
12.0,6.181119216581026e-28,6.180005142613812e-28,1.114073967214414e-31,19.42233219998986,19.421881604422868,0.0004505955669912818
13.0,6.158972013939512e-28,6.215436680964752e-28,5.646466702523939e-30,19.426229423294114,19.44914910327376,0.022919679979647466
14.0,6.134230817176395e-28,6.21376262812592e-28,7.953181094952461e-30,19.43059971632723,19.4630128310762,0.032413114748970816
15.0,6.111220974478707e-28,6.08068413134748e-28,3.0536843131227175e-30,19.434680031061383,19.42218791072293,0.012492120338453315
16.0,6.092096818926894e-28,6.082813781309292e-28,9.283037617602173e-31,19.438083008090647,19.434273548928424,0.0038094591622221436
17.0,6.077370293361997e-28,6.159996319415316e-28,8.262602605331874e-30,19.440710753354,19.474699971578687,0.033989218224684675
18.0,6.067119848852737e-28,6.101196408391215e-28,3.4076559538478564e-30,19.44254356497986,19.456585054346895,0.014041489367035611
19.0,6.060932284019989e-28,5.98261150376314e-28,7.832078025684922e-30,19.443651420333303,19.41134583738555,0.0323055829477532
20.0,6.056636382720603e-28,6.044114613632293e-28,1.252176908830922e-30,19.4444212473335,19.43925263215791,0.005168615175592116
21.0,6.051982529773578e-28,6.046199983437507e-28,5.782546336071332e-31,19.44525583580665,19.44286713660452,0.002388699202130576
22.0,6.0463829248736735e-28,6.1093143899588595e-28,6.29314650851862e-30,19.446260879707676,19.47228117393445,0.02602029422677568
23.0,6.042613383658499e-28,6.056270661536102e-28,1.3657277877602432e-30,19.446937979344533,19.452588381335556,0.005650401991022978
24.0,6.04394140231411e-28,6.135865437431126e-28,9.192403511701635e-30,19.44669938729472,19.484722603023542,0.03802321572882077
25.0,6.051108343448716e-28,6.0986124279919005e-28,4.750408454318435e-30,19.445412677683517,19.465038869220237,0.019626191536718664
26.0,6.060062294245553e-28,6.134775765644043e-28,7.471347139849021e-30,19.443807278731125,19.47462935108401,0.030822072352884807
27.0,6.066197965993254e-28,6.093968196224934e-28,2.7770230231680092e-30,19.44270855226764,19.454153212657623,0.011444660389983295
28.0,6.067569904998954e-28,6.0014653141789995e-28,6.610459081995488e-30,19.442463028557054,19.41522618091666,0.02723684764039248
29.0,6.065504253335166e-28,6.032621471962984e-28,3.2882781372181806e-30,19.442832720984576,19.42927952738402,0.013553193600557177
30.0,6.061896742707815e-28,6.172151793522898e-28,1.102550508150835e-29,19.44347866400468,19.488949188947107,0.04547052494242635
31.0,6.057697471283223e-28,6.0313280091517755e-28,2.6369462131447824e-30,19.444231049129343,19.433348423240357,0.010882625888983973
32.0,6.053083737955749e-28,6.116359140988299e-28,6.32754030325508e-30,19.44505829511265,19.47119183537568,0.026133540263033023
33.0,6.04800566219741e-28,6.104461618274718e-28,5.645595607730746e-30,19.445969527290615,19.469306127498424,0.023336600207809425
34.0,6.0428125863084875e-28,5.9906868901323135e-28,5.212569617617367e-30,19.446902187221077,19.425337023883777,0.021565163337299898
35.0,6.03931203762918e-28,6.108334102746587e-28,6.902206511740776e-30,19.447531326989495,19.476103316931127,0.028571989941632233
36.0,6.03941796180865e-28,6.064687651966797e-28,2.5269690158146217e-30,19.44751228430594,19.457972601143567,0.010460316837625605
37.0,6.043950850084457e-28,6.09558150630155e-28,5.163065621709304e-30,19.446697690094563,19.46805402533692,0.021356335242357055
38.0,6.052607908047746e-28,6.06947189325076e-28,1.6863985203013667e-30,19.44514364765157,19.452109233998485,0.006965586346916161
39.0,6.064942073370989e-28,6.202418651470147e-28,1.374765780991584e-29,19.44293335687623,19.499601902278656,0.056668545402424095
40.0,6.080339479491664e-28,5.998723578745397e-28,8.16159007462678e-30,19.440180430948885,19.40662313492062,0.03355729602826845
41.0,6.0969310788294155e-28,6.099159350048454e-28,2.228271219038501e-31,19.437221785798183,19.438135471384516,0.0009136855863336737
42.0,6.112844580920901e-28,6.073723799798295e-28,3.912078112260551e-30,19.434391615018637,19.418392197478763,0.015999417539874685
43.0,6.127159283620418e-28,6.144102943245654e-28,1.6943659625235853e-30,19.431852073652635,19.43876541588879,0.006913342236152941
44.0,6.139922144848444e-28,6.178240123964802e-28,3.831797911635778e-30,19.429592839360875,19.4451948202217,0.01560198086082719
45.0,6.151416875575988e-28,6.209357774610426e-28,5.7940899034438544e-30,19.427562100654132,19.45110988655712,0.023547785902988914
46.0,6.161582129544919e-28,6.2366937636530565e-28,7.511163410813778e-30,19.42576939576275,19.456245186123464,0.030475790360715908
47.0,6.169302620839178e-28,6.228160931319054e-28,5.8858310479876155e-30,19.424409814811067,19.448261096753804,0.023851281942735194
48.0,6.173315473905415e-28,6.285357320768763e-28,1.1204184686334881e-29,19.423703821969273,19.46907727134868,0.04537344937940939
49.0,6.172929008366873e-28,6.1366312758295505e-28,3.629773253732253e-30,19.423771793995563,19.409071425463814,0.014700368531747282
50.0,6.167387977488396e-28,6.199637546807884e-28,3.224956931948831e-30,19.424746825390233,19.43781944601877,0.013072620628539412
51.0,6.155919839599392e-28,6.043667186804745e-28,1.1225265279464638e-29,19.42676761011566,19.381180331642444,0.04558727847321654
52.0,6.1387149666570965e-28,6.174312046383546e-28,3.559707972644874e-30,19.429806328376024,19.444303287397496,0.014496959021471524
53.0,6.1182035108275335e-28,6.093611399394052e-28,2.459211143348123e-30,19.433440202752557,19.423391455849174,0.01004874690338429
54.0,6.096889753234246e-28,5.946259048424062e-28,1.506307048101833e-29,19.43722914504931,19.375463756914208,0.06176538813510509
55.0,6.0761881262301275e-28,6.210326820843753e-28,1.341386946136253e-29,19.440921970779364,19.496112285754375,0.055190314975011104
56.0,6.057054429119013e-28,6.061494762466446e-28,4.440333347433102e-31,19.444346309295664,19.446179020805605,0.001832711509940542
57.0,6.040168253048767e-28,5.9888827381487775e-28,5.128551489998961e-30,19.447377409095804,19.426150552180808,0.021226856914997073
58.0,6.026005666911663e-28,6.014570215990062e-28,1.1435450921602069e-30,19.44992616061976,19.445181952120095,0.004744208499667224
59.0,6.015450195901674e-28,6.009987960251246e-28,5.462235650428678e-31,19.451829661342575,19.44955957536707,0.0022700859755060807
60.0,6.009407783996235e-28,6.091642923856383e-28,8.223513986014843e-30,19.452920812012778,19.487131812004804,0.034210999992025155
61.0,6.008140324932434e-28,6.031743271431513e-28,2.360294649907811e-30,19.453149831474363,19.46297106783977,0.009821236365407103
62.0,6.011117826248479e-28,5.920386798943557e-28,9.07310273049215e-30,19.452611897934034,19.414877224480815,0.037734673453217966
63.0,6.017804831712851e-28,5.961524236678661e-28,5.628059503418961e-30,19.451404753306317,19.428023887439082,0.023380865867234528
64.0,6.0274736694847565e-28,5.926099722818691e-28,1.0137394666606578e-29,19.449661695313825,19.407615080004955,0.042046615308869315
65.0,6.037948212311155e-28,6.019495474420193e-28,1.845273789096111e-30,19.447776540639016,19.44013622258638,0.007640318052636099
66.0,6.047057704124226e-28,5.987406558496931e-28,5.965114562729488e-30,19.446139717784312,19.421478490561935,0.024661227222377707
67.0,6.053736079048664e-28,6.04606399839986e-28,7.672080648803758e-31,19.44494129158013,19.44177296686766,0.0031683247124680626
68.0,6.05794519949268e-28,5.8501844566295e-28,2.0776074286318025e-29,19.44418664909323,19.35844769965515,0.08573894943807805
69.0,6.059893193999372e-28,6.009111427528575e-28,5.0781766470797264e-30,19.44383757558489,19.422887632720766,0.02094994286412605
70.0,6.059625918687773e-28,6.045297556130239e-28,1.432836255753308e-30,19.443885463703186,19.4379740581355,0.005911405567687223
71.0,6.056706815812285e-28,6.055817268550962e-28,8.895472613230063e-32,19.44440862129683,19.444041446820513,0.00036717447631799644
72.0,6.050591322804711e-28,6.0681544710615745e-28,1.7563148256862648e-30,19.44550544945073,19.452762239456803,0.007256790006072236
73.0,6.041087145998153e-28,6.018608009087352e-28,2.2479136910800656e-30,19.447212248222627,19.43790964408552,0.009302604137109533
74.0,6.028224239851675e-28,5.996745191145744e-28,3.1479048705930802e-30,19.44952650257281,19.436471642860628,0.013054859712180077
75.0,6.011994563223279e-28,6.018094912687291e-28,6.100349464011541e-31,19.45245355206711,19.45499029316021,0.0025367410931010936
76.0,5.9925035184187345e-28,5.991346272609208e-28,1.1572458095264634e-31,19.455979255760003,19.455496466802945,0.00048278895705672873
77.0,5.969979871071349e-28,5.978777677257362e-28,8.79780618601212e-31,19.46006783293762,19.463752018804247,0.0036841858666239106
78.0,5.944559816933605e-28,5.852452045022634e-28,9.210777191097068e-30,19.46470074628623,19.425964584674823,0.03873616161140877
79.0,5.917141120559585e-28,5.885194253725201e-28,3.194686683438407e-30,19.469720182287663,19.456222588524273,0.013497593763389425
80.0,5.891770876867631e-28,5.890317797596094e-28,1.4530792715376742e-31,19.474385376589325,19.473768805060192,0.0006165715291317498
81.0,5.872629203881025e-28,5.750960999810158e-28,1.216682040708665e-29,19.47791854880019,19.426123943757503,0.05179460504268686
82.0,5.8611131247805075e-28,5.92400109683394e-28,6.2887972053433045e-30,19.480049740653683,19.506873984920333,0.026824244266650345
83.0,5.8544972594572195e-28,5.785129327517313e-28,6.936793193990616e-30,19.481275982400433,19.451654339044186,0.029621643356246688
84.0,5.849540147744899e-28,5.8751892520205785e-28,2.5649104275680175e-30,19.482195684857228,19.49315770222434,0.010962017367112336
85.0,5.844554511733313e-28,5.767940610507913e-28,7.661390122540038e-30,19.483121465947093,19.450349977088706,0.03277148885838652
86.0,5.839005528682318e-28,5.791401528874884e-28,4.760399980743371e-30,19.484152783838265,19.463770888507977,0.020381895330289425
87.0,5.832738837082883e-28,5.8244987064447175e-28,8.240130638165767e-31,19.48531867205413,19.481786827551776,0.0035318445023534125
88.0,5.82551266005172e-28,5.913717501497127e-28,8.820484144540656e-30,19.486664623980353,19.524517447668416,0.037852823688062955
89.0,5.816577643750993e-28,5.807046101346923e-28,9.531542404070413e-31,19.488331175662964,19.48423446150051,0.0040967141624553794
90.0,5.805170722264666e-28,5.855012101168882e-28,4.98413789042158e-30,19.49046250930221,19.51192672684583,0.021464217543619494
91.0,5.791389256112953e-28,5.727265026159368e-28,6.412422995358572e-30,19.493043109726425,19.465362260141887,0.027680849584536656
92.0,5.7774344421617e-28,5.728074698323387e-28,4.935974383831322e-30,19.495662434643314,19.47430358395775,0.021358850685566866
93.0,5.765679084056174e-28,5.827349640403064e-28,6.167055634689042e-30,19.497873834934648,19.524614204736633,0.026740369801983924
94.0,5.756809442793481e-28,5.768105629014185e-28,1.1296186220703574e-30,19.499545364920852,19.504450940801448,0.004905575880596683
95.0,5.748538699249008e-28,5.741832900146353e-28,6.705799102655199e-31,19.501106351540727,19.49819004556564,0.002916305975086872
96.0,5.73818991429718e-28,5.762454464978825e-28,2.4264550681645377e-30,19.503062705506334,19.513634223286353,0.010571517780018148
97.0,5.724762847293082e-28,5.746954779973838e-28,2.219193268075575e-30,19.505606248996497,19.51529745074263,0.009691201746133932
98.0,5.709584818159306e-28,5.693238946164677e-28,1.6345871994629073e-30,19.508488677606948,19.501331470684196,0.007157206922752558
99.0,5.694314932318848e-28,5.638985548776952e-28,5.532938354189611e-30,19.511396293101768,19.4871047917537,0.02429150134806681
100.0,5.679653481630821e-28,5.618174373828363e-28,6.14791078024572e-30,19.51419539998577,19.48713428261246,0.027061117373310455
101.0,5.665160759340627e-28,5.6365377279737745e-28,2.8623031366852113e-30,19.516969404305527,19.504338239638372,0.012631164667153935
102.0,5.650185617547044e-28,5.647358163308982e-28,2.827454238061344e-31,19.519843211711454,19.518592166865563,0.0012510448458898805
103.0,5.634668695772607e-28,5.693783084351508e-28,5.9114388578901316e-30,19.52282903570293,19.54905701456496,0.026227978862027726
104.0,5.6198214471191445e-28,5.667973428437253e-28,4.815198131810865e-30,19.525693706523406,19.547114307591965,0.021420601068559086
105.0,5.6069840087162e-28,5.570565899484161e-28,3.64181092320391e-30,19.52817670630103,19.511938872745848,0.016237833555181456
106.0,5.596587029089722e-28,5.576039015522895e-28,2.054801356682678e-30,19.53019184601014,19.521013031555892,0.00917881445424824
107.0,5.587684396844361e-28,5.588726052375889e-28,1.041655531528561e-31,19.531920329130728,19.532386378865084,0.0004660497343572388
108.0,5.579164954934759e-28,5.4945917813849255e-28,8.457317354983289e-30,19.533576994861377,19.49568011681916,0.037896878042218536
109.0,5.570338264928269e-28,5.5677837055234465e-28,2.554559404822224e-31,19.535296077536433,19.534149576514714,0.0011465010217180768
110.0,5.56040873785418e-28,5.53640007262495e-28,2.4008665229229756e-30,19.537233207164412,19.526438737566437,0.010794469597973725
111.0,5.548662898590698e-28,5.545605883356973e-28,3.057015233724447e-31,19.539529148375923,19.538151782653046,0.0013773657228757295
112.0,5.535005662435934e-28,5.4866021149998425e-28,4.8403547436091364e-30,19.542204826229884,19.520342361045525,0.021862465184357714
113.0,5.52065508490532e-28,5.511613781236998e-28,9.041303668321443e-31,19.545023463793203,19.54092915635628,0.004094307436921004
114.0,5.506957182427723e-28,5.441307160425631e-28,6.565002200209302e-30,19.54772075055622,19.51791753081648,0.029803219739739935
115.0,5.494646389206435e-28,5.463189046519216e-28,3.145734268721934e-30,19.55015062896467,19.53583790506081,0.014312723903859157
116.0,5.484213183347797e-28,5.574137557633168e-28,8.992437428537126e-30,19.552214178947693,19.59320655619445,0.04099237724675648
117.0,5.476043267622118e-28,5.465443778416925e-28,1.0599489205193583e-30,19.553832822631037,19.54899379530456,0.004839027326475197
118.0,5.470188908637461e-28,5.370949840225851e-28,9.923906841160948e-30,19.55499418847986,19.509639690642086,0.04535449783777595
119.0,5.466072459065696e-28,5.496269798655012e-28,3.0197339589316057e-30,19.555811538833137,19.56962279902748,0.013811260194343282
120.0,5.463082926716673e-28,5.464311271593965e-28,1.2283448772922902e-31,19.556405517685675,19.5569676292689,0.0005621115832258329
121.0,5.460894973586075e-28,5.553871616571221e-28,9.297664298514551e-30,19.556840439832463,19.599405185828708,0.04256474599624527
122.0,5.459487629401458e-28,5.394305914460158e-28,6.518171494129972e-30,19.55712028433934,19.527272375814796,0.029847908524543085
123.0,5.4589511125380015e-28,5.462291062877856e-28,3.3399503398544003e-31,19.557226987467388,19.558756562595924,0.001529575128536723
124.0,5.459123831317772e-28,5.484005065073967e-28,2.488123375619453e-30,19.5571926358013,19.568586970554,0.011394334752701733
125.0,5.459033022267675e-28,5.360475979384127e-28,9.85570428835477e-30,19.557210696482183,19.512075851867063,0.04513484461512162
126.0,5.457658411788673e-28,5.4517180835048565e-28,5.9403282838165235e-31,19.557484124449143,19.554763026940098,0.0027210975090458537
127.0,5.454578959960227e-28,5.530230410165496e-28,7.565145020526857e-30,19.558096917649255,19.592770286006644,0.034673368357390225
128.0,5.450086071023653e-28,5.376197433846505e-28,7.388863717714836e-30,19.558991597576526,19.52509826258408,0.033893334992446435
129.0,5.444581679883259e-28,5.299877673700103e-28,1.447040061831561e-29,19.560088706252344,19.493644663949787,0.06644404230255703
130.0,5.438257646137114e-28,5.407689136289216e-28,3.0568509847898155e-30,19.56135055216689,19.547298022920867,0.014052529246022153
131.0,5.43102278648093e-28,5.347113710707346e-28,8.39090757735838e-30,19.562795937677706,19.524171041837434,0.038624895840270124
132.0,5.422704957605824e-28,5.344905446437951e-28,7.779951116787251e-30,19.564460060813218,19.528592577806073,0.03586748300714379
133.0,5.413326957028946e-28,5.5039779221073105e-28,9.065096507836475e-30,19.56633935341347,19.60820407255844,0.041864719144969996
134.0,5.4033154438073785e-28,5.365021908946235e-28,3.829353486114356e-30,19.568349194373393,19.55063158411198,0.017717610261414104
135.0,5.393106185934529e-28,5.331593525891689e-28,6.1512660042839354e-30,19.57040257179422,19.54188808592925,0.028514485864967406
136.0,5.382855574178316e-28,5.428438731727699e-28,4.5583157549382206e-30,19.57246818114016,19.59363870899532,0.021170527855161894
137.0,5.372252243337604e-28,5.338623541753888e-28,3.362870158371591e-30,19.574609010243886,19.55895975362837,0.015649256615519372
138.0,5.360900787931181e-28,5.307220230066032e-28,5.368055786514853e-30,19.576905575040957,19.551872208453574,0.025033366587382946
139.0,5.348488073627017e-28,5.392692781477542e-28,4.420470785052462e-30,19.579422420685198,19.600084665436427,0.020662244751229155
140.0,5.334280391757676e-28,5.333707360052638e-28,5.730317050371865e-32,19.582310399346586,19.58204183842414,0.0002685609224454216
141.0,5.3175135261873595e-28,5.315506156982096e-28,2.0073692052635277e-31,19.585728491766627,19.5847847380764,0.0009437536902246514
142.0,5.298234862669666e-28,5.2115620796271565e-28,8.667278304250926e-30,19.589671985000393,19.548774976237535,0.040897008762856506
143.0,5.278401002602773e-28,5.286805542032017e-28,8.404539429244686e-31,19.593744048267272,19.597724675840425,0.003980627573151612
144.0,5.2601085494083445e-28,5.192174603396334e-28,6.793394601201035e-30,19.59751323375889,19.565225902911102,0.032287330847788086
145.0,5.2442557449538345e-28,5.26663749914522e-28,2.2381754191386087e-30,19.60079034341122,19.611459995731725,0.0106696523205044
146.0,5.230386249616968e-28,5.227292976915331e-28,3.093272701637417e-31,19.603665596243218,19.60218708559696,0.0014785106462567384
147.0,5.217807347502314e-28,5.198176624651654e-28,1.9630722850659542e-30,19.606279900029534,19.596874262017593,0.009405638011940243
148.0,5.205931232432407e-28,5.242392980495624e-28,3.646174806321673e-30,19.608753932466875,19.62626364707666,0.017509714609781943
149.0,5.193462384264983e-28,5.209431940658905e-28,1.5969556393921553e-30,19.611357523959477,19.619044860081477,0.00768733612199912
150.0,5.179119065997392e-28,5.284721159532565e-28,1.0560209353517326e-29,19.614360261501766,19.665335191885433,0.050974930383665774
151.0,5.1626619250164365e-28,5.214904720872122e-28,5.224279585568549e-30,19.61781578408303,19.64311416533212,0.02529838124908749
152.0,5.145989952967796e-28,5.103657676859803e-28,4.23322761079932e-30,19.621327665103774,19.600762003056776,0.020565662046998036
