time [days],flux [fnu],noisy_flux [fnu],error [fnu],flux [mag],noisy_flux [mag],error [mag]
0.0,5.520149654925836e-27,5.481748143815317e-27,3.840151111051903e-29,17.045122870247898,17.02773135302868,0.01739151721921702
1.0,5.543252716248638e-27,5.518533520818246e-27,2.4719195430392016e-29,17.0405883038028,17.029439977767648,0.011148326035151696
2.0,5.564308329913516e-27,5.5376290755763746e-27,2.6679254337141624e-29,17.03647203212863,17.024485252840304,0.011986779288323644
3.0,5.581962429679101e-27,5.668333379212678e-27,8.637094953357653e-29,17.033032727320887,17.071715784857403,0.03868305753651493
4.0,5.5966221522272285e-27,5.596837309564637e-27,2.151573374085685e-31,17.03018503215339,17.030281142508688,9.611035529839396e-05
5.0,5.604915492868601e-27,5.5499417314053744e-27,5.497376146322697e-29,17.028577327546518,17.004056992880823,0.024520334665693304
6.0,5.6020828041844235e-27,5.615596527007853e-27,1.3513722823429e-29,17.029126190434724,17.03515685942686,0.006030668992135858
7.0,5.585963893945234e-27,5.6376727462131406e-27,5.170885226790654e-29,17.032254689449612,17.05539700349319,0.02314231404357762
8.0,5.567006594505804e-27,5.5374925805948486e-27,2.9514013910956066e-29,17.035945660601975,17.022691673288538,0.013253987313435224
9.0,5.5515161349882936e-27,5.5249743505301e-27,2.65417844581938e-29,17.038970984022633,17.02701849040971,0.011952493612922629
10.0,5.540421410553183e-27,5.502676269035671e-27,3.774514151751218e-29,17.04114300274684,17.02411129219608,0.01703171055076094
11.0,5.529371116554364e-27,5.5583562052884134e-27,2.898508873404949e-29,17.04331065100647,17.05641570767705,0.013105056670581912
12.0,5.521955276170758e-27,5.53182298286855e-27,9.867706697792399e-30,17.04476778788138,17.04923527548508,0.004467487603700421
13.0,5.523540407507549e-27,5.571254834971771e-27,4.7714427464222545e-29,17.044456161397104,17.066052105277304,0.02159594388020114
14.0,5.5236759687438446e-27,5.5042462801377326e-27,1.942968860611228e-29,17.044429515093235,17.035635693408157,0.008793821685077429
15.0,5.5196059068998694e-27,5.5492237579184945e-27,2.9617851018624914e-29,17.045229823144673,17.058644662681314,0.013414839536641854
16.0,5.514383441987376e-27,5.544200763269997e-27,2.981732128262042e-29,17.04625759641466,17.05977557244784,0.01351797603318019
17.0,5.508127311857227e-27,5.571531090931684e-27,6.340377907445663e-29,17.04749007563196,17.076267451083126,0.028777375451166806
18.0,5.504268564854748e-27,5.447917302481742e-27,5.635126237300591e-29,17.048250960283035,17.022656613954798,0.025594346328235967
19.0,5.507576277639228e-27,5.54274565894118e-27,3.5169381301951827e-29,17.04759869834429,17.0635627901376,0.015964091793308245
20.0,5.518471575419786e-27,5.6430002858314305e-27,1.2452871041164484e-28,17.04545297518586,17.10186746817986,0.05641449299400081
21.0,5.533889604257342e-27,5.573315826926598e-27,3.9426222669256277e-29,17.042423772158283,17.06023503398709,0.017811261828807004
22.0,5.54962533381208e-27,5.443898920343693e-27,1.0572641346838717e-28,17.039340839918747,16.991713114122454,0.04762772579629393
23.0,5.564880638316498e-27,5.596650870718079e-27,3.177023240158082e-29,17.036360366138293,17.050633013867174,0.014272647728879245
24.0,5.576912859739861e-27,5.6846837013338284e-27,1.0777084159396736e-28,17.034015353460802,17.082326508890525,0.0483111554297239
25.0,5.581327141201237e-27,5.5334126087149854e-27,4.79145324862512e-29,17.033156303028075,17.01169432307507,0.02146197995300578
26.0,5.574399890228096e-27,5.622228526252372e-27,4.782863602427569e-29,17.03450469890159,17.055954826702845,0.021450127801254052
27.0,5.5584413089880554e-27,5.5708230309196056e-27,1.2381721931550085e-29,17.037617439124276,17.04318632131771,0.005568882193434659
28.0,5.5391814690134545e-27,5.419458621871499e-27,1.1972284714195537e-28,17.0413860167685,16.987351477635013,0.054034539133486076
29.0,5.5202687617173264e-27,5.5040387861838735e-27,1.622997553345272e-29,17.045099443861172,17.03774926933434,0.007350174526830312
30.0,5.5055069625630534e-27,5.495519412920519e-27,9.987549642534922e-30,17.048006709484262,17.04347145518777,0.004535254296493198
31.0,5.498276758361241e-27,5.5401618727922635e-27,4.188511443102257e-29,17.04943350881047,17.068478164196055,0.01904465538558412
32.0,5.498718461879553e-27,5.535194727358237e-27,3.647626547868444e-29,17.04934628980342,17.065930274658964,0.016583984855544073
33.0,5.5031078880352e-27,5.5110806375712065e-27,7.972749536006156e-30,17.048479931983067,17.05210186239867,0.0036219304156022564
34.0,5.506377186348666e-27,5.531300087753706e-27,2.492290140504007e-29,17.047835106975644,17.059150578365266,0.011315471389622828
35.0,5.507246029858945e-27,5.598163826558385e-27,9.091779669943979e-29,17.047663803701738,17.08893570085619,0.04127189715445145
36.0,5.503946777393314e-27,5.405247822057356e-27,9.869895533595782e-29,17.048314435839494,17.00348344485801,0.04483099098148526
37.0,5.4942252156363786e-27,5.395727191630018e-27,9.849802400636069e-29,17.050233855597973,17.005414968429843,0.04481888716813003
38.0,5.4769647592854595e-27,5.405834173936902e-27,7.113058534855758e-29,17.053650133663563,17.021182065821804,0.03246806784175725
39.0,5.451699482684977e-27,5.249934896265043e-27,2.0176458641993368e-28,17.058670230134833,16.96614651938154,0.09252371075329525
40.0,5.420875778123949e-27,5.499644413652694e-27,7.876863552874472e-29,17.064826361660817,17.101152888384885,0.03632652672406602
41.0,5.396379505432543e-27,5.410719770169697e-27,1.434026473715465e-29,17.06974378940192,17.076387255045283,0.006643465643362501
42.0,5.379160464542926e-27,5.31937062549927e-27,5.978983904365584e-29,17.073213750456347,17.045426031797568,0.027787718658777855
43.0,5.363311763356388e-27,5.38195842138473e-27,1.8646658028342402e-29,17.076417393118138,17.085109158043934,0.008691764925797091
44.0,5.3474664014612995e-27,5.3965986701585684e-27,4.913226869726922e-29,17.079629838632922,17.102599720539914,0.022969881906991913
45.0,5.329570690383227e-27,5.264983433942998e-27,6.458725644022889e-29,17.08326943254931,17.052972781940674,0.03029665060863687
46.0,5.308602979676996e-27,5.3575999290524e-27,4.8996949375404044e-29,17.087549383757175,17.110623698017903,0.02307431426072914
47.0,5.2901944807309464e-27,5.35683778160481e-27,6.664330087386336e-29,17.091320904810072,17.122814690679668,0.03149378586959588
48.0,5.27262989678587e-27,5.171640883361182e-27,1.0098901342468836e-28,17.094931780387768,17.04704817419807,0.047883606189697676
49.0,5.250864142314118e-27,5.2739181857976e-27,2.3054043483481903e-29,17.099423045601437,17.110399354861517,0.010976309260080051
50.0,5.227992139338522e-27,5.165676638452561e-27,6.231550088596133e-29,17.104162685209825,17.074363720700553,0.029798964509272326
51.0,5.2046418667541494e-27,5.2164208180569396e-27,1.1778951302790391e-29,17.109022872705204,17.114680779437474,0.00565790673227257
52.0,5.180282882096731e-27,5.221960964461662e-27,4.1678082364930834e-29,17.114116309720313,17.134230115912718,0.020113806192405045
53.0,5.158519198577537e-27,5.112217295991415e-27,4.6301902586121923e-29,17.11868737198926,17.09624784002101,0.022439531968248605
54.0,5.13941039230022e-27,5.145074856058789e-27,5.6644637585692994e-30,17.12271675409648,17.125472159544863,0.0027554054483835857
55.0,5.120355951479403e-27,5.031080787712051e-27,8.927516376735226e-29,17.126749617877813,17.083161259659494,0.04358835821831799
56.0,5.098963842615113e-27,5.020055817044949e-27,7.890802557016471e-29,17.131295169144074,17.092606904230973,0.038688264913099984
57.0,5.0763332860686e-27,5.0828052650487814e-27,6.471978980181719e-30,17.136124680219535,17.139312009840868,0.0031873296213348057
58.0,5.055640836768419e-27,5.173222733914498e-27,1.1758189714607885e-28,17.14055946703081,17.19870338040522,0.05814391337441089
59.0,5.0387761504906125e-27,5.053578669195438e-27,1.480251870482532e-29,17.144187337274953,17.151531639870825,0.007344302595871439
60.0,5.025672162740421e-27,4.9699417727532885e-27,5.573038998713312e-29,17.147014612357278,17.11929175848695,0.027722853870328957
61.0,5.01537160029851e-27,5.043414008447709e-27,2.804240814919954e-29,17.149242208961684,17.163220439481798,0.013978230520112649
62.0,5.007903927678322e-27,4.992683306807739e-27,1.522062087058348e-29,17.150860028207813,17.14326172905392,0.007598299153893614
63.0,5.0014356731900364e-27,5.039597938916099e-27,3.816226572606216e-29,17.152263281436728,17.171338937018298,0.019075655581570913
64.0,4.993466484349517e-27,5.007064580439699e-27,1.3598096090181217e-29,17.1539946517981,17.160802595804935,0.00680794400683386
65.0,4.984096272021062e-27,4.902179203937126e-27,8.191706808393645e-29,17.156033943759603,17.11494471533529,0.04108922842431317
66.0,4.9730364833121376e-27,4.9171551932212526e-27,5.58812900908847e-29,17.158445886685662,17.130353749075972,0.028092137609689666
67.0,4.959841003783829e-27,4.967824499371199e-27,7.983495587369216e-30,17.161330613354192,17.165354681656623,0.004024068302430794
68.0,4.945443289452036e-27,4.979305915359305e-27,3.3862625907269316e-29,17.164486934821014,17.181605029158227,0.017118094337212265
69.0,4.929643936205183e-27,4.8079296480888155e-27,1.2171428811636813e-28,17.167961120734805,17.10623542122614,0.061725699508666354
70.0,4.91106270725956e-27,4.912090921036449e-27,1.0282137768890397e-30,17.172061301281175,17.172584718430468,0.0005234171492908899
71.0,4.887398851459564e-27,4.861445596918862e-27,2.5953254540702545e-29,17.17730554391731,17.164029947158436,0.013275596758873031
72.0,4.861228191957262e-27,4.882767845630076e-27,2.1539653672814527e-29,17.18313498034088,17.194212249717193,0.011077269376312739
73.0,4.837160850247686e-27,4.8180243123656975e-27,1.9136537881988686e-29,17.188523676911576,17.178633299852372,0.009890377059204472
74.0,4.8147178550577904e-27,4.938688911822651e-27,1.2397105676486047e-28,17.193572894184385,17.257943777638452,0.06437088345406923
75.0,4.791251796881687e-27,4.8375193255906736e-27,4.6267528708986956e-29,17.198877512156045,17.223019182574568,0.024141670418521666
76.0,4.7649549775131724e-27,4.788803172682001e-27,2.3848195168828635e-29,17.204852996278692,17.21736528405548,0.012512287776785562
77.0,4.7408938121253835e-27,4.764476196599132e-27,2.3582384473748153e-29,17.2103494300555,17.222785051590325,0.012435621534821915
78.0,4.719342522121719e-27,4.728163285553062e-27,8.820763431342928e-30,17.215296252834055,17.21996891824772,0.004672665413665129
79.0,4.6979015563348014e-27,4.680081894206127e-27,1.7819662128674356e-29,17.220240220060624,17.210757442529534,0.009482777531090317
80.0,4.678483878520693e-27,4.6511430543240355e-27,2.734082419665731e-29,17.224737156774736,17.21012728266457,0.014609874110169162
81.0,4.6631717869207946e-27,4.710550268420464e-27,4.7378481499669514e-29,17.22829646311289,17.253696814882343,0.025400351769452326
82.0,4.653117605461451e-27,4.701615990838977e-27,4.849838537752636e-29,17.230639926824207,17.256696857622927,0.02605693079872025
83.0,4.646715922633548e-27,4.648356313559575e-27,1.6403909260272364e-30,17.23213469334759,17.233017247259504,0.0008825539119128769
84.0,4.644447645159437e-27,4.6312663975137e-27,1.3181247645737676e-29,17.23266482092678,17.225569656629105,0.007095164297672464
85.0,4.64673603114883e-27,4.7594858350506094e-27,1.1274980390177905e-28,17.2321299948689,17.292790748538774,0.0606607536698741
86.0,4.647295185010333e-27,4.655576422427337e-27,8.281237417004685e-30,17.23199935326072,17.236454222753256,0.004454869492535943
87.0,4.645575915280914e-27,4.578243323637569e-27,6.733259164334543e-29,17.232401096358668,17.196166303907066,0.03623479245160171
88.0,4.644235560165441e-27,4.584644208386124e-27,5.959135177931767e-29,17.23271440133585,17.200636274049174,0.03207812728667603
89.0,4.641076491234988e-27,4.5827886208362395e-27,5.828787039874843e-29,17.233453184399792,17.202055366184112,0.031397818215681925
90.0,4.6346644724200196e-27,4.6741238192420125e-27,3.94593468219932e-29,17.234954253071106,17.256239152472567,0.021284899401460475
91.0,4.624738713187928e-27,4.602963404800432e-27,2.1775308387495923e-29,17.237281997110294,17.225510895142197,0.011771101968096782
92.0,4.6122961458733496e-27,4.567020725959581e-27,4.527541991376862e-29,17.240207038357955,17.215666430772362,0.024540607585593142
93.0,4.5985444196610694e-27,4.532081304501842e-27,6.646311515922748e-29,17.243449035223303,17.20731634349858,0.036132691724725184
94.0,4.584707374941668e-27,4.633490971067481e-27,4.8783596125813443e-29,17.246720946333696,17.27332220576873,0.026601259435033258
95.0,4.572050087643899e-27,4.459587931235009e-27,1.1246215640888977e-28,17.24972255118827,17.18822816997358,0.061494381214688615
96.0,4.5591335543257795e-27,4.672890612301023e-27,1.1375705797524358e-28,17.25279421369493,17.31517287436572,0.062378660670791855
97.0,4.544388381530813e-27,4.484353024138978e-27,6.003535739183486e-29,17.256311397936784,17.223284204642837,0.033027193293947446
98.0,4.53262872904083e-27,4.514617821848132e-27,1.8010907192697856e-29,17.259124632163758,17.249190602558983,0.009934029604774857
99.0,4.525543297795281e-27,4.553960410484011e-27,2.841711268872961e-29,17.26082318917411,17.27652136661867,0.015698177444558776
100.0,4.521214755288321e-27,4.577451900560715e-27,5.623714527239427e-29,17.26186215929903,17.292958417891157,0.031096258592126974
101.0,4.514234700902248e-27,4.4749786166985956e-27,3.9256084203652037e-29,17.26353966284823,17.241799497125452,0.02174016572277801
102.0,4.506860105161043e-27,4.43311993134199e-27,7.374017381905244e-29,17.265314806009336,17.224410400226578,0.04090440578275809
103.0,4.505762237710681e-27,4.501639281058518e-27,4.122956652162986e-30,17.26557932268372,17.263291720478673,0.0022876022050476673
104.0,4.513053115714804e-27,4.53698775021797e-27,2.3934634503165742e-29,17.26382388771188,17.277082447875852,0.013258560163973846
105.0,4.5278535990783936e-27,4.5336173297592366e-27,5.76373068084273e-30,17.260269059529744,17.263451434221594,0.003182374691849516
106.0,4.547217551671953e-27,4.578502375164604e-27,3.128482349265126e-29,17.255635668572054,17.27283565028458,0.01719998171252453
107.0,4.566393777706697e-27,4.596107480478173e-27,2.9713702771476096e-29,17.25106660086651,17.267334198569394,0.016267597702885092
108.0,4.5814779753175106e-27,4.658219676411716e-27,7.674170109420571e-29,17.24748599222851,17.289362053571402,0.04187606134289409
109.0,4.5909892379333134e-27,4.5098074500141234e-27,8.118178791918994e-29,17.245234313233954,17.20102718067937,0.044207132554581446
110.0,4.600031251428692e-27,4.620233651316383e-27,2.0202399887691194e-29,17.243098044558604,17.25407753512262,0.010979490564013381
111.0,4.609063103869943e-27,4.609255919514962e-27,1.9281564501852673e-31,17.240968364492936,17.241072949546705,0.00010458505376973004
112.0,4.616210925778359e-27,4.604067631630691e-27,1.2143294147668308e-29,17.239285888599174,17.232709448341723,0.006576440257450312
113.0,4.62527849930211e-27,4.539558041176923e-27,8.572045812518651e-29,17.237155280518493,17.190822687714558,0.04633259280393631
114.0,4.636559526420359e-27,4.5967379266757936e-27,3.982159974456558e-29,17.234510400400296,17.213038876354474,0.02147152404582074
115.0,4.6483569030890184e-27,4.657554774022175e-27,9.19787093315672e-30,17.231751334993398,17.236698174879468,0.004946839886070478
116.0,4.6621160308653516e-27,4.62835604602161e-27,3.375998484374199e-29,17.228542304871365,17.210438945463192,0.01810335940817183
117.0,4.677493492181222e-27,4.658336285906246e-27,1.9157206274976518e-29,17.224967020158733,17.21472798599065,0.010239034168085541
118.0,4.693166586686934e-27,4.6640492762810024e-27,2.9117310405931286e-29,17.221335074944545,17.20582459291279,0.015510482031752355
119.0,4.7095848714884636e-27,4.7228142909942225e-27,1.3229419505758913e-29,17.217543430674244,17.22456603450598,0.007022603831735257
120.0,4.725788722347104e-27,4.727046986749736e-27,1.2582644026320081e-30,17.213814246099936,17.214479883349377,0.0006656372494404913
121.0,4.7410860900794254e-27,4.76778428182335e-27,2.6698191743923913e-29,17.210305396396247,17.224383495399653,0.014078099003406121
122.0,4.759807454268596e-27,4.756635115490159e-27,3.172338778437384e-30,17.206026537967666,17.20436032625169,0.001666211715976258
123.0,4.781252847709686e-27,4.716298362517743e-27,6.495448519194383e-29,17.20114572209211,17.167182612808393,0.03396310928371959
124.0,4.801724505949552e-27,4.8099874035295504e-27,8.262897579998421e-30,17.1965069019189,17.200808948803182,0.0043020468842810125
125.0,4.821133378296813e-27,4.773609834364386e-27,4.7523543932426404e-29,17.192127133615116,17.167483787225674,0.024643346389441365
126.0,4.842202519845138e-27,4.8733487552274894e-27,3.114623538235131e-29,17.187392626552143,17.203473240309364,0.016080613757222313
127.0,4.866688700521219e-27,4.889536395212619e-27,2.2847694691400248e-29,17.181916081673776,17.19365285800023,0.011736776326454411
128.0,4.8862927812093525e-27,4.903358870174476e-27,1.7066088965123706e-29,17.177551285355836,17.186282899346892,0.008731613991057176
129.0,4.89687826673307e-27,4.8696133096239895e-27,2.7264957109080457e-29,17.175201730327757,17.161282169934402,0.013919560393355537
130.0,4.899582889238491e-27,4.876566159199503e-27,2.3016730038988826e-29,17.17460222677188,17.1628579974368,0.011744229335084358
131.0,4.90111671243186e-27,4.8809381817468e-27,2.0178530685059896e-29,17.174262388300342,17.16396956532294,0.010292822977402437
132.0,4.901379085619551e-27,5.0050614942136216e-27,1.0368240859407035e-28,17.17420426676171,17.22708857074172,0.05288430398001164
133.0,4.897882099174032e-27,4.9245390265413805e-27,2.6656927367348814e-29,17.174979183335733,17.188585537484112,0.013606354148379856
134.0,4.8985986536249086e-27,4.817570259867321e-27,8.102839375758777e-29,17.17482035301064,17.13346750932665,0.04135284368399301
135.0,4.903479663820866e-27,5.010251540540512e-27,1.0677187671964676e-28,17.1737390537694,17.228175843579827,0.05443678981042642
136.0,4.906983172397218e-27,4.897349873811708e-27,9.633298585509502e-30,17.172963578375377,17.168055624625048,0.004907953750330128
137.0,4.907146881170426e-27,4.866265405406449e-27,4.0881475763977847e-29,17.17292735620568,17.152099838325153,0.020827517880526034
138.0,4.908042637407097e-27,4.944026353173349e-27,3.598371576625174e-29,17.172729182756733,17.191058137099958,0.018328954343223583
139.0,4.916014131761915e-27,4.913659185979485e-27,2.3549457824306664e-30,17.17096719336072,17.169769604359086,0.00119758900163426
140.0,4.931065708957852e-27,4.9070558118749715e-27,2.4009897082880453e-29,17.16764802558877,17.155475252754254,0.012172772834513084
141.0,4.9531118438586924e-27,4.987665660358919e-27,3.4553816500226457e-29,17.162804663275104,17.180245121712897,0.01744045843779469
142.0,4.9818903806846176e-27,4.973473228565297e-27,8.417152119320304e-30,17.156514581795815,17.1522907071839,0.0042238746119116774
143.0,5.013901166365049e-27,5.044842219792273e-27,3.0941053427223867e-29,17.149560577682305,17.164988211973736,0.015427634291431068
144.0,5.043841886863214e-27,5.104917169284165e-27,6.107528242095064e-29,17.14309634011014,17.173368543219848,0.030272203109708108
145.0,5.068105641420859e-27,5.096664942276003e-27,2.855930085514353e-29,17.137885852758792,17.151973612010362,0.014087759251569607
146.0,5.093412644249994e-27,5.050861853570281e-27,4.255079067971272e-29,17.13247784477395,17.111592637913795,0.02088520686015335
147.0,5.119542096022738e-27,5.184845864990528e-27,6.530376896779022e-29,17.126922204036877,17.15881166199178,0.03188945795490348
148.0,5.142137702461187e-27,5.190265293766517e-27,4.812759130533007e-29,17.122140743669743,17.14553937381645,0.023398630146706647
149.0,5.163437889883828e-27,5.226325976181003e-27,6.288808629717427e-29,17.117652606665253,17.14810135401069,0.03044874734543828
150.0,5.1851719936125655e-27,5.196916942842661e-27,1.174494923009549e-29,17.113092083414916,17.11875484120027,0.005662757785355861
151.0,5.207389803965452e-27,5.29386694679372e-27,8.647714282826797e-29,17.108449778983953,17.149966328581613,0.04151654959765793
152.0,5.227112328573315e-27,5.253309226558403e-27,2.6196897985087584e-29,17.10434541746396,17.116874753136493,0.01252933567253076
