time [days],flux [fnu],noisy_flux [fnu],error [fnu],flux [mag],noisy_flux [mag],error [mag]
0.0,5.589556163824141e-27,5.539953087516696e-27,4.960307630744485e-29,17.031556689252923,17.00937108325236,0.022185606000561454
1.0,5.614396076842382e-27,5.675416912549532e-27,6.10208357071498e-29,17.026742381498597,17.05391397523369,0.027171593735095374
2.0,5.637054591763249e-27,5.5866981335241926e-27,5.035645823905654e-29,17.02236939814257,17.000036610061787,0.022332788080780867
3.0,5.6565209850783566e-27,5.521796167016001e-27,1.347248180623558e-28,17.01862649337589,16.959082465157064,0.05954402821882642
4.0,5.673109262497978e-27,5.6599360354092104e-27,1.317322708876767e-29,17.015447129911173,17.00964201208282,0.0058051178283525795
5.0,5.6841279218908325e-27,5.716782741740205e-27,3.2654819849373026e-29,17.013340391980098,17.02770267424138,0.014362282261282376
6.0,5.685644780661772e-27,5.753099539319624e-27,6.74547586578517e-29,17.013050692522082,17.042710810793665,0.02966011827158168
7.0,5.6757547439564794e-27,5.7948385926921984e-27,1.190838487357189e-28,17.014940947962238,17.067393817275573,0.05245286931333622
8.0,5.6626061895863946e-27,5.605170547153274e-27,5.743564243312e-29,17.017459101688832,16.992101677690876,0.02535742399795737
9.0,5.651288511573437e-27,5.635884438407911e-27,1.540407316552584e-29,17.019631300952803,17.012816893435836,0.0068144075169668805
10.0,5.642730435945279e-27,5.7070893485387425e-27,6.435891259346332e-29,17.02127674078678,17.04979082334134,0.028514082554557566
11.0,5.633684697028902e-27,5.6157238898696124e-27,1.7960807159289458e-29,17.02301865756284,17.015048382278902,0.007970275283937013
12.0,5.627236185136677e-27,5.532159385157993e-27,9.507679997868347e-29,17.024262140874157,16.982022577414117,0.042239563460039035
13.0,5.627815766164751e-27,5.576611519766278e-27,5.120424639847291e-29,17.024150320491795,17.001404263883867,0.02274605660792963
14.0,5.627304911971691e-27,5.571074632014941e-27,5.62302799567501e-29,17.024248880588832,16.999267881319927,0.024980999268905877
15.0,5.6235126722617884e-27,5.640218678923388e-27,1.6706006661599025e-29,17.024980804660178,17.03240766027304,0.007426855612863692
16.0,5.6187835253039145e-27,5.6454121343195074e-27,2.6628609015592575e-29,17.02589424908157,17.037742280286043,0.011848031204473329
17.0,5.613208254623241e-27,5.591057068165331e-27,2.215118645791024e-29,17.02697211200118,17.017106458771732,0.009865653229445801
18.0,5.609546857037618e-27,5.66372094543341e-27,5.417408839579189e-29,17.02768054981707,17.05182425062591,0.02414370080883906
19.0,5.611665490222927e-27,5.6212856922420804e-27,9.620202019153872e-30,17.02727056260534,17.031556367789165,0.00428580518382418
20.0,5.62007366428358e-27,5.593514348282973e-27,2.655931600060624e-29,17.025644979857496,17.01383049236715,0.011814487490348533
21.0,5.632435970597562e-27,5.6369036538242e-27,4.467683226637967e-30,17.023259341564348,17.025242357105917,0.0019830155415703626
22.0,5.6454907333444506e-27,5.577126449959565e-27,6.83642833848857e-29,17.020745752806135,16.99047190832832,0.030273844477814754
23.0,5.6585329301086626e-27,5.6035603437658805e-27,5.497258634278205e-29,17.018240380927686,16.993952907910487,0.02428747301720059
24.0,5.66928572340834e-27,5.584795804825025e-27,8.448991858331489e-29,17.016179136684404,16.97892139262925,0.03725774405515412
25.0,5.6741033887339386e-27,5.7052041152591456e-27,3.1100726525207314e-29,17.015256887799325,17.028959813351825,0.013702925552501613
26.0,5.6697553426998305e-27,5.594493791055228e-27,7.526155164460279e-29,17.01608920268301,16.982903665082386,0.033185537600624516
27.0,5.657823046960161e-27,5.663671337087883e-27,5.84829012772259e-30,17.018376598953715,17.020960759892994,0.0025841609392789175
28.0,5.6426463737726586e-27,5.660933785690843e-27,1.8287411918184055e-29,17.021292915584628,17.029395236156756,0.008102320572127729
29.0,5.627138467820657e-27,5.621918500944961e-27,5.2199668756957806e-30,17.024280994916445,17.02196189129675,0.0023191036196935056
30.0,5.614432152081476e-27,5.570304488119712e-27,4.412766396176386e-29,17.02673540513519,17.007086194508698,0.01964921062649413
31.0,5.607432487820048e-27,5.584438313166841e-27,2.299417465320674e-29,17.028089866294582,17.017838216050396,0.01025165024418599
32.0,5.606525221545317e-27,5.614093148654413e-27,7.567927109096253e-30,17.028265549468987,17.031640156204016,0.0033746067350296865
33.0,5.608928949529229e-27,5.574585317317934e-27,3.434363221129447e-29,17.027800153329224,17.012492581901448,0.015307571427775448
34.0,5.610716905569849e-27,5.58366264517318e-27,2.70542603966688e-29,17.02745410878426,17.015399383491573,0.01205472529268568
35.0,5.610820035776742e-27,5.610182450006023e-27,6.375857707184678e-31,17.02743415212414,17.027150064519006,0.0002840876051330181
36.0,5.607730717857452e-27,5.572371671764544e-27,3.535904609290802e-29,17.028032123193913,17.01226859607754,0.015763527116374118
37.0,5.599489916658497e-27,5.563387045736519e-27,3.6102870921978393e-29,17.029628832694385,17.013510011400246,0.016118821294137997
38.0,5.585002051732138e-27,5.63855168442489e-27,5.354963269275215e-29,17.03244165750979,17.056411940867225,0.023970283357435927
39.0,5.56369196222035e-27,5.6797362462779646e-27,1.1604428405761428e-28,17.03659230759647,17.088735868403575,0.05214356080710456
40.0,5.537382694321315e-27,5.627984905756347e-27,9.060221143503176e-29,17.041738652260122,17.082643451709846,0.04090479944972286
41.0,5.515577450904896e-27,5.511113638746187e-27,4.463812158709271e-30,17.046022531444212,17.043999256366288,0.0020232750779235857
42.0,5.499197604954758e-27,5.522159818225062e-27,2.29622132703041e-29,17.049251685883696,17.059690578482144,0.0104388925984471
43.0,5.483774865284621e-27,5.514355000906906e-27,3.058013562228509e-29,17.05230095836221,17.066242146856233,0.01394118849402195
44.0,5.468276660385959e-27,5.531424061025222e-27,6.314740063926302e-29,17.055373802451708,17.08424368439126,0.02886988193955332
45.0,5.451110429385744e-27,5.401569763597227e-27,4.9540665788516785e-29,17.058787549706448,17.036067102913876,0.02272044679257179
46.0,5.431458839486487e-27,5.3591010971966004e-27,7.235774228988711e-29,17.062708768179647,17.029403838312625,0.033304929867022666
47.0,5.4137864278304334e-27,5.375924208686418e-27,3.7862219144015275e-29,17.066247202520277,17.048763035177906,0.017484167342369888
48.0,5.396716235444693e-27,5.441964144601815e-27,4.5247909157121736e-29,17.069676042395066,17.090636894876035,0.020960852480968586
49.0,5.376260891333779e-27,5.375955972958256e-27,3.0491837552311237e-31,17.0737991615869,17.073657372348208,0.00014178923869497437
50.0,5.35479313799111e-27,5.359950582941295e-27,5.157444950185184e-30,17.078143254547278,17.080551118314037,0.0024078637667598293
51.0,5.332816300060188e-27,5.223992614930419e-27,1.0882368512976912e-28,17.082608440588533,17.03159239249752,0.05101604809101567
52.0,5.309920659687158e-27,5.279657629223918e-27,3.026303046323986e-29,17.08727992013883,17.073031576141435,0.014248343997395456
53.0,5.2889920173499574e-27,5.3001477029728536e-27,1.1155685622896341e-29,17.091567721147694,17.096840789052838,0.005273067905142105
54.0,5.270136751992327e-27,5.2794050105835435e-27,9.268258591216347e-30,17.09544528840833,17.099841881432084,0.004396593023754349
55.0,5.25135830277743e-27,5.245409671847279e-27,5.9486309301507325e-30,17.099320871436074,17.096488922734817,0.00283194870125531
56.0,5.230703104575014e-27,5.223439542583717e-27,7.263561991297403e-30,17.10359982471827,17.100128225467614,0.0034715992506554032
57.0,5.2090489758585255e-27,5.1794895287122756e-27,2.9559447146249544e-29,17.10810389819926,17.093917312853623,0.014186585345637744
58.0,5.1889337848638394e-27,5.132230454427002e-27,5.670333043683725e-29,17.11230467807657,17.0849853227004,0.027319355376166737
59.0,5.171935891057185e-27,5.19606212778079e-27,2.4126236723605918e-29,17.115867167683216,17.12752925961156,0.011662091928344807
60.0,5.1580701472598746e-27,5.2274650671946914e-27,6.93949199348167e-29,17.118781889907407,17.152416038898032,0.03363414899062657
61.0,5.146673915719972e-27,5.196303211172764e-27,4.962929545279204e-29,17.121183367547125,17.145290828144738,0.024107460597612665
62.0,5.137814063678402e-27,5.146730181427018e-27,8.916117748616145e-30,17.12305404200934,17.12739252022114,0.004338478211798442
63.0,5.1300437419764136e-27,5.098924326534566e-27,3.111941544184745e-29,17.124697329511875,17.109532051686262,0.0151652778256128
64.0,5.121344901569278e-27,5.027250978768175e-27,9.409392280110313e-29,17.12653993807248,17.080607705129005,0.045932232943474934
65.0,5.1117130462762104e-27,5.116772493458442e-27,5.059447182231587e-30,17.128583834853345,17.131058273038953,0.002474438185608493
66.0,5.100835789258018e-27,5.046788640936959e-27,5.404714832105924e-29,17.130896643616182,17.104407284541498,0.026489359074682684
67.0,5.088283898847418e-27,4.999317762194291e-27,8.896613665312698e-29,17.133571663474193,17.08986039538178,0.04371126809241093
68.0,5.074729275643643e-27,5.1449825578027926e-27,7.025328215914995e-29,17.136467803354687,17.171077177738624,0.03460937438393673
69.0,5.0599614252418434e-27,5.060384161882565e-27,4.227366407217677e-31,17.139631985009423,17.13984084857833,0.0002088635689063394
70.0,5.0428213603476546e-27,5.059518871108088e-27,1.6697510760433072e-29,17.143316040632005,17.151593902153994,0.008277861521988327
71.0,5.0213770635792e-27,5.009676236749977e-27,1.1700826829223016e-29,17.147942913760275,17.14211740679223,0.005825506968044117
72.0,4.9976464099165534e-27,4.975946905637175e-27,2.1699504279378882e-29,17.15308618507691,17.14223132335824,0.01085486171866909
73.0,4.975299492528945e-27,4.9555513945619635e-27,1.974809796698171e-29,17.157951928482653,17.148028858526445,0.009923069956208681
74.0,4.954042644875292e-27,4.9154416932583535e-27,3.860095161693906e-29,17.162600648213612,17.14312112694987,0.019479521263744973
75.0,4.931770714044334e-27,4.988914514920535e-27,5.714380087620077e-29,17.167492806640507,17.19645998911387,0.028967182473361365
76.0,4.907072938820822e-27,4.868450625377752e-27,3.8622313443069735e-29,17.1729437165252,17.153266857262768,0.01967685926243372
77.0,4.884032073661472e-27,4.8194881052559164e-27,6.454396840555525e-29,17.178053731715273,17.14501547181439,0.03303825990088543
78.0,4.862929892503439e-27,4.888693184868955e-27,2.5763292365515945e-29,17.182754978721118,17.19599971642813,0.013244737707010717
79.0,4.841913730448654e-27,4.817497965466989e-27,2.4415764981664793e-29,17.18745738188868,17.17485091761603,0.012606464272651557
80.0,4.82255462303473e-27,4.745326333776873e-27,7.722828925785684e-29,17.19180711146616,17.151772163552362,0.0400349479137982
81.0,4.80662123248118e-27,4.8375475299089864e-27,3.092629742780628e-29,17.195400248622853,17.211485506817745,0.01608525819489323
82.0,4.7951449457289154e-27,4.7418858043999004e-27,5.32591413290148e-29,17.1979956515363,17.170228429725594,0.027767221810705258
83.0,4.7869275427320716e-27,4.836344496450644e-27,4.94169537185723e-29,17.199857865403008,17.225666149149436,0.02580828374643011
84.0,4.782440748388981e-27,4.783651822702259e-27,1.2110743132780271e-30,17.200876004797465,17.201509088601842,0.0006330838043764531
85.0,4.782064059272151e-27,4.75659421349117e-27,2.5469845780980457e-29,17.200961526216602,17.1876462268682,0.013315299348403684
86.0,4.780740921981623e-27,4.7468382906466275e-27,3.3902631334995276e-29,17.201261977406844,17.18353322370095,0.017728753705891363
87.0,4.777967000589849e-27,4.8312226063993796e-27,5.325560580953045e-29,17.201892135163146,17.229757336933563,0.027865201770416136
88.0,4.775747576650992e-27,4.791250166428101e-27,1.55025897771093e-29,17.202396590042547,17.210511858661906,0.008115268619358509
89.0,4.772256389618446e-27,4.792911301579258e-27,2.065491196081245e-29,17.203190579726915,17.21401088687017,0.010820307143254652
90.0,4.766222730563271e-27,4.7712821126247205e-27,5.059382061449331e-30,17.204564166202196,17.207217935417074,0.002653769214878579
91.0,4.757319947623751e-27,4.8047409573139355e-27,4.742100969018485e-29,17.206594099159467,17.2315141225194,0.024920023359933634
92.0,4.7462607358565125e-27,4.671744353735315e-27,7.451638212119753e-29,17.20912101873467,17.16987097208308,0.03925004665159333
93.0,4.7339621970000345e-27,4.777094845994507e-27,4.3132648994472396e-29,17.211938036116532,17.234716338519224,0.022778302402692425
94.0,4.721383519945994e-27,4.7125065412236854e-27,8.876978722308008e-30,17.21482680053636,17.210126388737148,0.004700411799214284
95.0,4.7095838598281206e-27,4.7129756441070635e-27,3.391784278942582e-30,17.217543663899985,17.219344133102727,0.0018004692027430887
96.0,4.6974220629403015e-27,4.689329936027647e-27,8.0921269126546e-30,17.22035104186091,17.216044356830146,0.0043066850307620745
97.0,4.683680372991314e-27,4.622996721282083e-27,6.068365170923121e-29,17.223531875044497,17.191140866864707,0.03239100817978882
98.0,4.672259586599461e-27,4.6798437545572914e-27,7.584167957829998e-30,17.22618259052259,17.230240674099317,0.004058083576724954
99.0,4.6646176070901624e-27,4.709087160870245e-27,4.446955378008299e-29,17.227959881903836,17.251793322030036,0.023833440126201234
100.0,4.6593039835893635e-27,4.698691097673285e-27,3.938711408392139e-29,17.229197385669124,17.2503309681863,0.021133582517178322
101.0,4.6519835597840516e-27,4.6996525504650566e-27,4.766899068100499e-29,17.23090457186868,17.256522133747605,0.025617561878925586
102.0,4.644489596189083e-27,4.683104641257621e-27,3.8615045068538435e-29,17.232655014045644,17.253440422360597,0.020785408314954037
103.0,4.642198444055672e-27,4.652268084271363e-27,1.0069640215690526e-29,17.233190745807406,17.238613629133614,0.005422883326209742
104.0,4.6469710985814895e-27,4.593040365514357e-27,5.393073306713272e-29,17.23207507142043,17.20306115465452,0.029013916765909812
105.0,4.658224227594857e-27,4.6871175649426355e-27,2.889333734777844e-29,17.229449025407515,17.244955651933036,0.015506626525520812
106.0,4.673719438663037e-27,4.7107487288047724e-27,3.7029290141735207e-29,17.225843404173553,17.245650589129614,0.019807184956061354
107.0,4.689646055384697e-27,4.635979616845358e-27,5.366643853933853e-29,17.222149834573667,17.19354083194024,0.02860900263342806
108.0,4.702784053025395e-27,4.6954690126860725e-27,7.315040339322805e-30,17.219112407872547,17.21522373243219,0.00388867544035798
109.0,4.711774083786868e-27,4.721456471281948e-27,9.682387495079775e-30,17.217038852278208,17.2221761887267,0.005137336448492247
110.0,4.720542709112906e-27,4.717253043370663e-27,3.289665742242863e-30,17.215020171834365,17.213277964452207,0.001742207382157688
111.0,4.729340114714821e-27,4.803460689018849e-27,7.412057430402746e-29,17.21299863046555,17.252179875896285,0.03918124543073644
112.0,4.736643063952507e-27,4.7063639832480395e-27,3.027908070446772e-29,17.2113233521955,17.195342054736702,0.015981297458796295
113.0,4.745458238696624e-27,4.7739528783238264e-27,2.849463962720244e-29,17.209304610394963,17.224316142576853,0.015011532181889302
114.0,4.756057661776463e-27,4.7694165546881606e-27,1.335889291169752e-29,17.206882221739995,17.21390426281987,0.007022041079873999
115.0,4.767141346584762e-27,4.813371339948002e-27,4.6229993363240235e-29,17.204354927434476,17.228599013146535,0.02424408571205884
116.0,4.779880785999828e-27,4.846770670557811e-27,6.688988455798302e-29,17.201457337250062,17.236442459030663,0.03498512178060074
117.0,4.794032176686111e-27,4.74911274581561e-27,4.491943087050066e-29,17.19824763846433,17.17482297775338,0.0234246607109505
118.0,4.8085765645734104e-27,4.757612894304322e-27,5.096367026908803e-29,17.194958661269382,17.168462426060945,0.02649623520843805
119.0,4.8238509446068666e-27,4.8572109155844454e-27,3.335997097757888e-29,17.191515300539816,17.20880437692332,0.01728907638350424
120.0,4.839078415139708e-27,4.840323495564981e-27,1.2450804252730658e-30,17.188093350707693,17.18873659324194,0.0006432425342487033
121.0,4.853707084106698e-27,4.881243619112226e-27,2.753653500552842e-29,17.184816091021013,17.198999340302628,0.014183249281613991
122.0,4.8711816448141244e-27,4.7755974818867675e-27,9.558416292735708e-29,17.180914188557953,17.131858245925883,0.04905594263206972
123.0,4.89096856368133e-27,4.8534269017645954e-27,3.7541661916734546e-29,17.176512821409073,17.157323543545225,0.01918927786385
124.0,4.9101604956519116e-27,4.927962191632601e-27,1.78016959806895e-29,17.17226078026446,17.18132448398476,0.009063703720302733
125.0,4.928623211446364e-27,4.968027258532304e-27,3.940404708593992e-29,17.168185954940068,17.188173305055628,0.01998735011555911
126.0,4.9485485448679555e-27,4.9459718587913574e-27,2.5766860765983484e-30,17.163805412459304,17.162503674155012,0.0013017383042905478
127.0,4.971322067649586e-27,4.974743275547647e-27,3.421207898060526e-30,17.1588202503339,17.160540722198075,0.0017204718641765924
128.0,4.9902963609702636e-27,5.027175975243725e-27,3.687961427346129e-29,17.1546841549234,17.17315981829377,0.018475663370366834
129.0,5.002011099117392e-27,5.015069682869491e-27,1.305858375209872e-29,17.152138372337404,17.158665039058718,0.006526666721312811
130.0,5.007177377666286e-27,4.927235867666065e-27,7.994151000022091e-29,17.151017558961676,17.11110409875714,0.0399134602045392
131.0,5.011016555009144e-27,5.0283461487181216e-27,1.7329593708977252e-29,17.150185406166543,17.15883115375026,0.008645747583718385
132.0,5.013377025068538e-27,4.975669882611238e-27,3.7707142457300216e-29,17.149674083894393,17.130870819014877,0.018803264879517376
133.0,5.012307224944252e-27,4.946099902441229e-27,6.620732250302242e-29,17.149905792913398,17.116883414429925,0.03302237848347315
134.0,5.014213500603835e-27,5.039954640400795e-27,2.5741139796960123e-29,17.14949294531023,17.162327031749637,0.01283408643940882
135.0,5.0191869411319836e-27,5.053163039929383e-27,3.39760987973998e-29,17.148416571469234,17.16533968032924,0.01692310886000648
136.0,5.0229398814507626e-27,5.0652068020995285e-27,4.2266920648765536e-29,17.147605049479903,17.168641992807082,0.02103694332718038
137.0,5.0238805539618874e-27,5.113661676656083e-27,8.978112269419546e-29,17.147401736956958,17.19207891515111,0.04467717819415168
138.0,5.025318087538387e-27,5.050529106961757e-27,2.521101942336983e-29,17.14709110875348,17.15963311056521,0.012542001811729717
139.0,5.032388999583387e-27,5.0639918412433465e-27,3.1602841659959943e-29,17.145564489136063,17.161264210313508,0.01569972117744486
140.0,5.0452803365463304e-27,5.0439727505422135e-27,1.307586004116616e-30,17.142786743918183,17.142138818571674,0.0006479253465089434
141.0,5.064085465105608e-27,5.068433182032853e-27,4.3477169272451206e-30,17.13874743366625,17.140893782181298,0.0021463485150494256
142.0,5.088758365695877e-27,5.0829090659609006e-27,5.849299734976444e-30,17.13347042662712,17.130596788641867,0.0028736379852536804
143.0,5.116586992065044e-27,5.065836853492722e-27,5.075013857232219e-29,17.127549094029614,17.102752223258616,0.024796870770997844
144.0,5.143310741434246e-27,5.2151457582716175e-27,7.183501683737197e-29,17.12189309070738,17.15680981091382,0.03491672020643862
145.0,5.165957566724748e-27,5.1934363478803366e-27,2.7478781155588006e-29,17.11712291362828,17.130420923145714,0.013298009517434798
146.0,5.18971523280161e-27,5.194243319121079e-27,4.528086319468402e-30,17.112141179663954,17.11432245846074,0.002181278796786681
147.0,5.214298873009349e-27,5.2781115753582785e-27,6.381270234892914e-29,17.10701019894398,17.137605252997766,0.030595054053787225
148.0,5.2362052885364304e-27,5.202392782996161e-27,3.3812505540269835e-29,17.102458337536373,17.086314726048155,0.016143611488216095
149.0,5.257092521031446e-27,5.2894173872936014e-27,3.232486626215589e-29,17.098135949112752,17.113507975633514,0.015372026520761006
150.0,5.278316146331019e-27,5.26277758142839e-27,1.5538564902628285e-29,17.093761502846235,17.08640188072819,0.0073596221180447915
151.0,5.2999007925588244e-27,5.259216916855793e-27,4.0683875703031796e-29,17.089330649416656,17.070139782787532,0.019190866629122963
152.0,5.319447438926859e-27,5.2132821385208284e-27,1.0616530040603082e-28,17.085333694961758,17.035438803798282,0.04989489116347416
