time [days],flux [fnu],noisy_flux [fnu],error [fnu],flux [mag],noisy_flux [mag],error [mag]
0.0,5.600883062524991e-27,5.67887408124981e-27,7.799101872481985e-29,17.029358736525914,17.064170666115487,0.034811929589572584
1.0,5.628962382531931e-27,5.60902980551034e-27,1.993257702159094e-29,17.02392913412911,17.01507644704976,0.008852687079348175
2.0,5.6545892128141814e-27,5.684933623287805e-27,3.034441047362356e-29,17.01899734912219,17.03241318240892,0.013415833286730357
3.0,5.6770547545492084e-27,5.705078001825284e-27,2.802324727607572e-29,17.014692292583405,17.027032867268552,0.012340574685148044
4.0,5.6966516233651485e-27,5.6122999335978555e-27,8.43516897672929e-29,17.010950847126388,16.973932746255816,0.03701810087057084
5.0,5.7113452372328224e-27,5.714247561522483e-27,2.9023242896607914e-30,17.008153967433678,17.009424388047872,0.0012704206141927184
6.0,5.718061731223364e-27,5.788647956313258e-27,7.058622508989386e-29,17.006877900958123,17.03773898134156,0.03086108038343621
7.0,5.715122734466577e-27,5.7086053531579655e-27,6.517381308611135e-30,17.007436096317313,17.00458515959582,0.0028509367214925776
8.0,5.7086706559348776e-27,5.752877319796092e-27,4.420666386121429e-29,17.00866252886267,17.028021967568094,0.019359438705426075
9.0,5.702689396891457e-27,5.7635124191154525e-27,6.082302222399548e-29,17.009800705216428,17.036464888547695,0.026664183331267424
10.0,5.698071230790388e-27,5.699108322910296e-27,1.0370921199080598e-30,17.01068031502028,17.011135333954716,0.00045501893443520674
11.0,5.6924086291493035e-27,5.736369172159565e-27,4.3960543010261563e-29,17.01175982917542,17.031066482067992,0.019306652892569665
12.0,5.688166903069495e-27,5.788513396084685e-27,1.0034649301519041e-28,17.012569172389362,17.056672349531123,0.044103177141761006
13.0,5.689035492078547e-27,5.66600437697708e-27,2.3031115101467428e-29,17.01240339199743,17.002282557308696,0.010120834688734195
14.0,5.688929012498604e-27,5.680467596508469e-27,8.461415990135331e-30,17.012423713511875,17.008705344038663,0.003718369473210845
15.0,5.686140252302658e-27,5.771947778036487e-27,8.580752573382929e-29,17.012956080902573,17.050682694179073,0.03772661327650188
16.0,5.6824796728313036e-27,5.569294161134635e-27,1.1318551169666878e-28,17.01365527285832,16.96385944506248,0.049795827795840554
17.0,5.6780476927013625e-27,5.637221943298117e-27,4.082574940324592e-29,17.014502409857368,16.99652715162921,0.01797525822815995
18.0,5.674932438872761e-27,5.683254858423859e-27,8.322419551097747e-30,17.01509826115182,17.018764568918805,0.003666307766983244
19.0,5.676274588351419e-27,5.644253191890578e-27,3.202139646084101e-29,17.01484150955095,17.00073833502934,0.01410317452161044
20.0,5.68257207119875e-27,5.600064838248533e-27,8.250723295021739e-29,17.013637618692723,16.97733925242633,0.036298366266392254
21.0,5.6921520421475586e-27,5.736952062784027e-27,4.480002063646871e-29,17.011808770158844,17.031484992923428,0.019676222764583064
22.0,5.70256674889229e-27,5.6385471551117794e-27,6.401959378051056e-29,17.00982405644528,16.981757925613515,0.0280661308317637
23.0,5.7131801740880465e-27,5.642054347561006e-27,7.112582652704009e-29,17.007805198916376,16.976681628348082,0.03112357056829272
24.0,5.722256051651537e-27,5.6664500959605575e-27,5.58059556909796e-29,17.006081782207985,16.981700683569944,0.02438109863804202
25.0,5.7269701043626674e-27,5.6619078236384856e-27,6.506228072418194e-29,17.005187709906654,16.976786007287927,0.028401702618728125
26.0,5.724619349228653e-27,5.675693524065993e-27,4.8925825162659754e-29,17.005633464621088,16.984267054831214,0.02136640978987193
27.0,5.7161750246746495e-27,5.759579676092622e-27,4.340465141797286e-29,17.00723620482571,17.026219463399237,0.018983258573526333
28.0,5.7048348199905876e-27,5.577002022346893e-27,1.2783279764369446e-28,17.00939231448828,16.953372814503922,0.05601949998435948
29.0,5.6927948628817e-27,5.695165586271654e-27,2.3707233899540858e-30,17.01168616374693,17.012727270728234,0.0010411069813053226
30.0,5.682484499898124e-27,5.685400414361064e-27,2.9159144629402616e-30,17.013654350563964,17.014937202485072,0.001282851921106225
31.0,5.676277433020992e-27,5.6967074088831594e-27,2.042997586216742e-29,17.014840965433518,17.023838929373458,0.008997963939940084
32.0,5.674654621796769e-27,5.66193390177594e-27,1.2720720020828966e-29,17.015151414813904,17.009547232326756,0.0056041824871454465
33.0,5.6756382200823296e-27,5.6221074100239816e-27,5.353081005834785e-29,17.014963238475712,16.99138403558143,0.0235792028942832
34.0,5.676271363712835e-27,5.6165424388354456e-27,5.972892487738892e-29,17.01484212634772,16.98853571803397,0.026306408313749283
35.0,5.675735706864442e-27,5.74584320230779e-27,7.010749544334796e-29,17.014944589644383,17.045824945541927,0.030880355897543555
36.0,5.6728392060321035e-27,5.706764748826681e-27,3.392554279457729e-29,17.015498815335842,17.030449681014577,0.014950865678734212
37.0,5.665974326686236e-27,5.6089378508879976e-27,5.70364757982385e-29,17.016813494148803,16.991647268311173,0.025166225837629442
38.0,5.6541484896270596e-27,5.648540107574825e-27,5.608382052234415e-30,17.019081975564756,17.016602211342732,0.002479764222023614
39.0,5.636769192849216e-27,5.587402088294701e-27,4.936710455451475e-29,17.022424369364355,17.000529245195914,0.021895124168442838
40.0,5.615036235415547e-27,5.639068587549205e-27,2.4032352133658224e-29,17.02661859192116,17.037318590605977,0.010699998684816895
41.0,5.596308838061745e-27,5.548183431448053e-27,4.812540661369245e-29,17.03024581632748,17.00874708921722,0.021498727110260973
42.0,5.581496199679244e-27,5.535716543756642e-27,4.5779655922602194e-29,17.033123416561146,17.012618316188046,0.020505100373101142
43.0,5.5672160429933724e-27,5.6361364061869786e-27,6.892036319360613e-29,17.035904812522418,17.066854017053625,0.030949204531206375
44.0,5.5527219434978595e-27,5.683412858614957e-27,1.3069091511709764e-28,17.038735183970314,17.09757610759613,0.05884092362581491
45.0,5.536837366965647e-27,5.5672886718888255e-27,3.0451304923178187e-29,17.04184558198533,17.05559499473893,0.0137494127535962
46.0,5.518881696471904e-27,5.536895089321008e-27,1.801339284910371e-29,17.045372288582136,17.053532181219722,0.008159892637587821
47.0,5.502352129705532e-27,5.431510532929165e-27,7.08415967763676e-29,17.04862904963569,17.016442088902153,0.032186960733535795
48.0,5.486283527355973e-27,5.4908397029189084e-27,4.5561755629358445e-30,17.05180438027916,17.053880546931968,0.0020761666528067778
49.0,5.467482697677084e-27,5.433600986438637e-27,3.388171123844715e-29,17.05553145662671,17.04003908421699,0.015492372409720723
50.0,5.447769115801189e-27,5.5014340016957066e-27,5.366488589451757e-29,17.059453266806774,17.08408026767345,0.024627000866677337
51.0,5.427552927753e-27,5.414597061099418e-27,1.2955866653582012e-29,17.063489831881466,17.057522194704067,0.005967637177398159
52.0,5.406477240882241e-27,5.465225729362164e-27,5.874848847992272e-29,17.067714052191803,17.094879841421285,0.027165789229483563
53.0,5.386805466050013e-27,5.4053219041442755e-27,1.8516438094262272e-29,17.07167176966792,17.080265192156887,0.008593422488969068
54.0,5.36870398065713e-27,5.429786306626852e-27,6.108232596972208e-29,17.075326353712374,17.103770055483693,0.028443701771319118
55.0,5.350632836804452e-27,5.380967335404726e-27,3.0334498600274356e-29,17.07898712378875,17.093160446611247,0.01417332282249765
56.0,5.331085011736055e-27,5.351492414393746e-27,2.0407402657691153e-29,17.08296097994088,17.092530984270564,0.009570004329684068
57.0,5.3107009666046394e-27,5.264093672806693e-27,4.660729379794632e-29,17.087120380047402,17.065180106018122,0.021940274029279595
58.0,5.291462089030579e-27,5.284881797140061e-27,6.580291890518171e-30,17.091060777632094,17.08795185812185,0.003108919510242448
59.0,5.2746675460321515e-27,5.295873822131568e-27,2.1206276099416557e-29,17.094512270158013,17.104563271436458,0.01005100127844498
60.0,5.260395758444169e-27,5.285085801185691e-27,2.4690042741522561e-29,17.097453952713135,17.10918788105013,0.011733928336993112
61.0,5.2481760068359034e-27,5.374728873935879e-27,1.2655286709997554e-28,17.099979021392418,17.16026323582003,0.060284214427611
62.0,5.238120221465177e-27,5.227498942177792e-27,1.0621279287384559e-29,17.102061345475814,17.096992122721122,0.005069222754691584
63.0,5.22915148584163e-27,5.248425924822522e-27,1.9274438980892163e-29,17.103921941748215,17.113136839725964,0.009214897977749993
64.0,5.219687150222816e-27,5.14948686253865e-27,7.020028768416607e-29,17.10588881577192,17.07226597322226,0.03362284254965807
65.0,5.209684019945343e-27,5.2167694052066956e-27,7.085385261352742e-30,17.107971542305727,17.1113716454762,0.0034001031704736086
66.0,5.198863835944869e-27,5.234839790745856e-27,3.597595480098736e-29,17.110228892688497,17.12752880471555,0.017299912027052014
67.0,5.186820339223382e-27,5.224092234839412e-27,3.727189561603019e-29,17.112746987031265,17.130711700082042,0.017964713050775766
68.0,5.174020312641509e-27,5.231287708637141e-27,5.726739599563196e-29,17.115429676557955,17.14310032362505,0.027670647067094257
69.0,5.1602762105386494e-27,5.0738105589015e-27,8.646565163714946e-29,17.11831762892504,17.076427598183777,0.04189003074126329
70.0,5.1446297132052506e-27,5.1640254639583246e-27,1.9395750753074183e-29,17.12161469574213,17.131039937126992,0.009425241384860563
71.0,5.125500393625506e-27,5.2374903132632905e-27,1.1198991963778483e-28,17.12565932198208,17.180283217717736,0.054623895735655736
72.0,5.104347486371843e-27,5.056992179763714e-27,4.7355306608129206e-29,17.13014942002516,17.106955805790154,0.02319361423500442
73.0,5.084045172305794e-27,5.085717593621451e-27,1.672421315656815e-30,17.134476498365494,17.13529888548981,0.0008223871243153771
74.0,5.064410935881477e-27,5.136659559753832e-27,7.22486238723548e-29,17.138677655213232,17.174342525613298,0.03566487040006543
75.0,5.0438367745718496e-27,5.032443162268962e-27,1.1393612302887588e-29,17.143097440581315,17.13745014626346,0.0056472943178532695
76.0,5.021164334165824e-27,5.047260578319888e-27,2.6096244154064484e-29,17.147988911683868,17.160982035597627,0.012993123913758493
77.0,4.999608198284939e-27,4.9833779522913606e-27,1.6230245993578652e-29,17.152660071154944,17.1445443122045,0.008115758950444486
78.0,4.979478053909278e-27,4.9383458011925135e-27,4.113225271676399e-29,17.157040443395267,17.13638955776456,0.020650885630709815
79.0,4.959361230264024e-27,4.9498684615629446e-27,9.492768701079406e-30,17.161435643470245,17.156650365558267,0.004785277911977201
80.0,4.940499788547993e-27,5.028995329325826e-27,8.849554077783285e-29,17.165572787392644,17.210353449555086,0.04478066216244166
81.0,4.924345682184491e-27,5.005299522196501e-27,8.095384001201024e-29,17.169128669512382,17.210227449551773,0.041098780039391075
82.0,4.911808074197636e-27,4.854418255376749e-27,5.738981882088722e-29,17.17189652829575,17.14268639938092,0.02921012891483045
83.0,4.902034917520963e-27,4.8362712351993296e-27,6.576368232163353e-29,17.174058998911057,17.140520028142724,0.03353897076833312
84.0,4.895461083614286e-27,4.869520963768793e-27,2.5940119845493535e-29,17.17551599374869,17.162268967880014,0.013247025868675743
85.0,4.892467011915086e-27,4.855942662619925e-27,3.6524349295160904e-29,17.17618023486552,17.15751667044791,0.018663564417608598
86.0,4.8891299789163856e-27,4.9269961900233e-27,3.786621110691437e-29,17.17692104184972,17.196283490419408,0.019362448569687517
87.0,4.884966736497808e-27,4.8238768860909e-27,6.108985040690801e-29,17.177845973007656,17.146581762982194,0.0312642100254634
88.0,4.8815303879060375e-27,4.897435032229311e-27,1.5904644323273036e-29,17.178610007069143,17.186755323731862,0.008145316662719492
89.0,4.877352904169064e-27,4.926296032743124e-27,4.8943128574059345e-29,17.179539549001213,17.20462648116283,0.025086932161615644
90.0,4.8713449228075224e-27,4.867745452498212e-27,3.5994703093102724e-30,17.18087779618526,17.179030528969353,0.0018472672159066572
91.0,4.863161390201023e-27,4.855689659861035e-27,7.471730339988004e-30,17.182703293943682,17.17886230978724,0.003840984156439415
92.0,4.853263126766203e-27,4.861681378874147e-27,8.41825210794394e-30,17.184915405338018,17.189251792984876,0.004336387646857888
93.0,4.842298683967827e-27,4.8213446344721756e-27,2.0954049495651036e-29,17.187371064498013,17.176552829779745,0.010818234718268703
94.0,4.831004334198489e-27,4.918231448720621e-27,8.722711452213184e-29,17.189906432200875,17.235045656101303,0.04513922390042922
95.0,4.820191562192029e-27,4.940500866368642e-27,1.2030930417661326e-28,17.19233925463639,17.25473786609422,0.06239861145783044
96.0,4.809009961416497e-27,4.731749577785403e-27,7.726038363109362e-29,17.194860808311663,17.1546964167576,0.04016439155406559
97.0,4.796460349708207e-27,4.7687339327995405e-27,2.772641690866606e-29,17.197697853266,17.183246354198385,0.014451499067615975
98.0,4.785609145107913e-27,4.71436630183624e-27,7.124284327167332e-29,17.200156935981397,17.16293970766653,0.0372172283148642
99.0,4.77769928011477e-27,4.768615984460729e-27,9.08329565404117e-30,17.20195297316315,17.197200007812313,0.004752965350836695
100.0,4.771696040446887e-27,4.869932655036722e-27,9.823661458983443e-29,17.20331807227007,17.25478646723757,0.051468394967502065
101.0,4.764215170129558e-27,4.7036564427140856e-27,6.055872741547277e-29,17.205021580877375,17.17324366717442,0.03177791370295411
102.0,4.756621371573766e-27,4.857210184355258e-27,1.0058881278149164e-28,17.206753542924183,17.25962132707378,0.05286778414959852
103.0,4.753183420972148e-27,4.688411851916562e-27,6.477156905558541e-29,17.20753856589413,17.173471098199848,0.034067467694281595
104.0,4.755487492143111e-27,4.759319769750155e-27,3.832277607044205e-30,17.207012390667245,17.209027051421465,0.0020146607542211982
105.0,4.763210429499323e-27,4.727133059640457e-27,3.607736985886611e-29,17.20525057941876,17.186315152151348,0.01893542726741254
106.0,4.774703479304488e-27,4.764855676813033e-27,9.847802491455285e-30,17.202633984965207,17.1974777472354,0.005156237729808603
107.0,4.7870324048395205e-27,4.8893840889699666e-27,1.0235168413044593e-28,17.199834081600446,17.253286656951186,0.05345257535073921
108.0,4.797640491504806e-27,4.7867227712496264e-27,1.0917720255180044e-29,17.197430746904914,17.1917416377092,0.005689109195714059
109.0,4.805356147007709e-27,4.873511852686945e-27,6.815570567923617e-29,17.195686048111224,17.231144244961875,0.035458196850652095
110.0,4.8131259432127615e-27,4.799179262040054e-27,1.3946681172707546e-29,17.1939319353938,17.18668784842347,0.007244086970326678
111.0,4.8211132272496846e-27,4.812241354106059e-27,8.87187314362548e-30,17.192131671711333,17.187531140295953,0.004600531415379475
112.0,4.8280304106508385e-27,4.884823392114961e-27,5.679298146412267e-29,17.190575007613063,17.219982952796485,0.029407945183420426
113.0,4.8361639600106036e-27,4.80311999738788e-27,3.3043962622722913e-29,17.188747459292028,17.171665758332363,0.017081700959664353
114.0,4.8457736689916724e-27,4.7354147014794184e-27,1.1035896751225427e-28,17.186592185671405,17.12965650571051,0.056935679960893736
115.0,4.85583732258366e-27,4.815179970686016e-27,4.065735189764459e-29,17.18433967792078,17.163407473443627,0.020932204477152827
116.0,4.8672809086540565e-27,4.86924961474717e-27,1.968706093113448e-30,17.181783970759707,17.182795164755934,0.001011193996227481
117.0,4.8799620470599904e-27,4.945166314000044e-27,6.520426694005318e-29,17.178958889059054,17.212362974127366,0.033404085068313445
118.0,4.893070603130028e-27,4.8724562109503004e-27,2.0614392179727748e-29,17.176046294174363,17.16551385255859,0.010532441615772421
119.0,4.906884344800105e-27,4.95888250995325e-27,5.199816515314449e-29,17.17298544553429,17.199477900572614,0.026492455038321656
120.0,4.9208139828766426e-27,4.90663246691012e-27,1.418151596652297e-29,17.1699076297523,17.162702766890245,0.0072048628620547065
121.0,4.93437020689482e-27,4.871976120158406e-27,6.239408673641332e-29,17.16692067543141,17.135308694509696,0.03161198092171406
122.0,4.950241255342128e-27,5.046968275330026e-27,9.672701998789806e-29,17.163434086852643,17.21228373629322,0.04884964944057708
123.0,4.968082915785064e-27,4.91035019495146e-27,5.773272083360437e-29,17.159527911322133,17.13047610109058,0.02905181023155355
124.0,4.985621855984698e-27,4.945696913938225e-27,3.9924942046472853e-29,17.155701661194662,17.135681619964224,0.02002004123043713
125.0,5.002722540685582e-27,5.0110591011572265e-27,8.336560471644903e-30,17.151983957857773,17.156149969666266,0.004166011808493404
126.0,5.0210555232190816e-27,5.03173619441547e-27,1.0680671196388114e-29,17.148012440343084,17.15333038153443,0.005317941191347631
127.0,5.041770685364263e-27,5.10612685017144e-27,6.435616480717718e-29,17.143542278018288,17.17545376746484,0.0319114894465532
128.0,5.059706284354248e-27,5.0902375950596466e-27,3.053131070539888e-29,17.139686732992647,17.154772248331653,0.015085515339007212
129.0,5.072050115048721e-27,5.0892034887783516e-27,1.7153373729631038e-29,17.137041160005477,17.145496012254835,0.00845485224935828
130.0,5.0791370130925805e-27,5.051704482404676e-27,2.7432530687903906e-29,17.135525179078584,17.12202262410852,0.013502554970062133
131.0,5.084940406803062e-27,5.061009541192471e-27,2.3930865610591166e-29,17.134285331114754,17.12251977257518,0.011765558539572282
132.0,5.0893294082985546e-27,5.170661840599486e-27,8.133243230093084e-29,17.133348595956633,17.17330102670729,0.039952430750656395
133.0,5.09069389823098e-27,5.062794801218599e-27,2.7899097012380747e-29,17.133057540408945,17.119356511840877,0.013701028568067953
134.0,5.093993343192351e-27,5.083503604862856e-27,1.0489738329495152e-29,17.132354067265275,17.12720597537411,0.0051480918911651664
135.0,5.0994483959548094e-27,5.0923377996182364e-27,7.11059633657277e-30,17.13119199678898,17.127706033315846,0.0034859634731343315
136.0,5.10379101910858e-27,5.078103496019355e-27,2.568752308922498e-29,17.130267791588153,17.117685221596037,0.012582569992115157
137.0,5.105768484478448e-27,5.168266851776215e-27,6.249836729776692e-29,17.12984720424119,17.1604490458091,0.03060184156790606
138.0,5.1079387749005725e-27,5.1183823165277064e-27,1.0443541627133527e-29,17.12938579236366,17.13449721895243,0.005111426588769564
139.0,5.114372592003733e-27,5.2038666414004085e-27,8.949404939667528e-29,17.12801908989582,17.17176543795061,0.04374634805479282
140.0,5.1253713213905134e-27,5.1196429314181726e-27,5.728389972340919e-30,17.125686663734566,17.122892529605963,0.002794134128601441
141.0,5.14114125345751e-27,5.08225121389612e-27,5.889003956138971e-29,17.12235115919334,17.093714502146724,0.0286366570466164
142.0,5.1617653335798455e-27,5.2581362652883736e-27,9.63709317085281e-29,17.118004358569863,17.164679732923666,0.04667537435380264
143.0,5.185262116646283e-27,5.179277507655413e-27,5.984608990870057e-30,17.11307321249022,17.110187818822435,0.002885393667784713
144.0,5.208365329231414e-27,5.152681363586261e-27,5.568396564515268e-29,17.108246401871213,17.081518262558177,0.02672813931303559
145.0,5.2286761272879365e-27,5.307970044860063e-27,7.92939175721264e-29,17.104020645611282,17.141933644830292,0.037912999219008515
146.0,5.250130475635919e-27,5.171762765995658e-27,7.836770964026142e-29,17.09957475855911,17.06225772900911,0.037317029549998555
147.0,5.272505841308852e-27,5.302714852957319e-27,3.0209011648466726e-29,17.09495732610404,17.109281165924088,0.014323839820046369
148.0,5.2930041924914356e-27,5.320952223421471e-27,2.794803093003589e-29,17.09074440502977,17.103944862611915,0.013200457582143277
149.0,5.312798875822885e-27,5.405126003055833e-27,9.232712723294789e-29,17.08669156166252,17.130137177330894,0.04344561566837385
150.0,5.332920704444895e-27,5.297647470872624e-27,3.527323357227105e-29,17.082587184557124,17.066051576994614,0.016535607562508586
151.0,5.3533723342005375e-27,5.3753273205196776e-27,2.195498631913982e-29,17.078431374511126,17.088684251085244,0.01025287657411678
152.0,5.372278594863984e-27,5.345449577000478e-27,2.682901786350615e-29,17.074603684593715,17.062118750412736,0.01248493418098015
