time [days],flux [fnu],noisy_flux [fnu],error [fnu],flux [mag],noisy_flux [mag],error [mag]
0.0,1.599410889687003e-27,1.610130079813828e-27,1.0719190126824942e-29,18.390099878470274,18.40685478209751,0.016754903627239023
1.0,1.6043805742276714e-27,1.5777981997600986e-27,2.658237446757293e-29,18.386731512694556,18.345309958958204,0.041421553736352965
2.0,1.6092305899285792e-27,1.5873215597748354e-27,2.1909030153743817e-29,18.38345430125288,18.34941780224077,0.03403649901210892
3.0,1.6131585365562362e-27,1.6081399341014235e-27,5.0186024548128196e-30,18.380807373269406,18.3730297706019,0.007777602667507358
4.0,1.6163699133575576e-27,1.6189534649215114e-27,2.5835515639539855e-30,18.378648104965333,18.382644021281585,0.0039959163162524135
5.0,1.618983549928768e-27,1.6139998109701946e-27,4.98373895857351e-30,18.376893909944005,18.36919812613139,0.0076957838126162316
6.0,1.6202921864548155e-27,1.623333508964018e-27,3.0413225092025574e-30,18.376016655737754,18.380709208313498,0.004692552575743982
7.0,1.619620405913289e-27,1.6456853356192404e-27,2.606492970595133e-29,18.376466900270728,18.41669998453354,0.040233084262811504
8.0,1.6158308193112406e-27,1.6359385783089596e-27,2.0107758997718872e-29,18.37901028168497,18.410120839110608,0.03111055742563746
9.0,1.6088297437336547e-27,1.6043723140793053e-27,4.45742965434939e-30,18.383724782961412,18.376798273690138,0.006926509271274586
10.0,1.6011652938408232e-27,1.6055706545774957e-27,4.405360736672537e-30,18.38890958010576,18.395787946682933,0.006878366577171275
11.0,1.5947304426382428e-27,1.5892013260808678e-27,5.529116557375057e-30,18.393281788050157,18.384613996288078,0.008667791762079807
12.0,1.5901148540867681e-27,1.5791154485457784e-27,1.0999405540989654e-29,18.396428763578374,18.379135349972557,0.017293413605815933
13.0,1.5872155693819574e-27,1.595561056438591e-27,8.34548705663347e-30,18.398410212673085,18.411555067123892,0.013144854450808943
14.0,1.5847624645704224e-27,1.5969492619281523e-27,1.2186797357729782e-29,18.400089559257744,18.41931451825031,0.01922495899256616
15.0,1.5822189105811169e-27,1.587530889768649e-27,5.311979187532099e-30,18.40183357282877,18.41022681593819,0.008393243109420802
16.0,1.5814384156222588e-27,1.5838492194086353e-27,2.4108037863765782e-30,18.40236928928874,18.406180382661965,0.0038110933732250075
17.0,1.5832165174456277e-27,1.6100026398746785e-27,2.678612242905084e-29,18.40114921963225,18.443446217758993,0.042296998126743514
18.0,1.5849968390088285e-27,1.589993756514945e-27,4.9969175061164224e-30,18.39992899891903,18.407810587990905,0.007881589071876674
19.0,1.5850505822297748e-27,1.5682366748579931e-27,1.6813907371781643e-29,18.39989218498346,18.373372672672176,0.026519512311286346
20.0,1.5840475358496346e-27,1.5945175167970148e-27,1.0469980947380172e-29,18.40057947440509,18.41710356965859,0.016524095253499436
21.0,1.5826806118458568e-27,1.5879685235485697e-27,5.287911702712884e-30,18.40151679450522,18.40986957216474,0.008352777659520437
22.0,1.5810276415686825e-27,1.5645599207209869e-27,1.646772084769559e-29,18.4026513427599,18.376611758734416,0.02603958402548303
23.0,1.5793282486992162e-27,1.593048324713046e-27,1.3720076013829687e-29,18.403818991345307,18.425537206075415,0.021718214730107512
24.0,1.578818473970529e-27,1.5923088186692315e-27,1.3490344698702544e-29,18.404169501269404,18.42553095751202,0.02136145624261672
25.0,1.5802739157940043e-27,1.5820995857966535e-27,1.8256700026491714e-30,18.403169070893515,18.40605728853794,0.002888217644426328
26.0,1.5836874317986519e-27,1.5890427881124223e-27,5.355356313770491e-30,18.400826324606466,18.4092802597174,0.008453935110933187
27.0,1.5886832300495348e-27,1.609243580676519e-27,2.0560350626984125e-29,18.397406721984538,18.42976111183094,0.0323543898463998
28.0,1.594083448643411e-27,1.590509746309521e-27,3.5737023338900866e-30,18.393722368678592,18.388117733712757,0.005604634965834695
29.0,1.599077920768116e-27,1.607958227105731e-27,8.880306337615052e-30,18.390325932981025,18.40420941267623,0.01388347969520679
30.0,1.6035932964463576e-27,1.6175439736265885e-27,1.3950677180230966e-29,18.387264419782962,18.40901350854996,0.021749088766999648
31.0,1.6075237493243746e-27,1.62702753982556e-27,1.9503790501185518e-29,18.38460650538053,18.414938546368077,0.030332040987548017
32.0,1.610016615186533e-27,1.6116737542062103e-27,1.6571390196773384e-30,18.38292410518964,18.385497275870065,0.002573170680423919
33.0,1.6104095792147017e-27,1.5858191551975179e-27,2.459042401718388e-29,18.382659136984238,18.34448496015592,0.03817417682831831
34.0,1.607997799681396e-27,1.6107264606954833e-27,2.7286610140871675e-30,18.384286374645036,18.388528701678425,0.00424232703338869
35.0,1.6027454823735136e-27,1.5966978295361024e-27,6.047652837411142e-30,18.38783859644908,18.378405325689744,0.009433270759333453
36.0,1.5960965310389066e-27,1.5935956091941385e-27,2.5009218447681392e-30,18.39235211574993,18.38843486858453,0.003917247165402142
37.0,1.5892454373989608e-27,1.5762083372565586e-27,1.3037100142402213e-29,18.397022566804157,18.376514249089965,0.020508317714190497
38.0,1.5829408453823696e-27,1.5735908685973193e-27,9.349976785050357e-30,18.401338286129068,18.386571504394418,0.014766781734651317
39.0,1.577697746232809e-27,1.5686632337942037e-27,9.034512438605214e-30,18.404940487158118,18.39062451240919,0.014315974748930234
40.0,1.5742957826147034e-27,1.6011490177172596e-27,2.68532351025562e-29,18.407284169953076,18.449927419396897,0.04264324944381865
41.0,1.5731155035330584e-27,1.5898865109594102e-27,1.6771007426351822e-29,18.408098472040862,18.434751008661163,0.026652536620301932
42.0,1.5740091955892855e-27,1.560144723303989e-27,1.386447228529659e-29,18.407481836895972,18.38546088504234,0.02202095185362932
43.0,1.5765005748431159e-27,1.6076215109817079e-27,3.112093613859206e-29,18.405764666395562,18.455115958483876,0.04935129208831565
44.0,1.5791928409107463e-27,1.5549495831327862e-27,2.4243257777960094e-29,18.40391208373524,18.365532892242737,0.038379191492501026
45.0,1.5811246413091028e-27,1.5820100080038085e-27,8.853666947055668e-31,18.40258473234989,18.403984632572133,0.0013999002222438983
46.0,1.5821179864173583e-27,1.5804832925965463e-27,1.6346938208119514e-30,18.401902830320708,18.399319752075524,0.0025830782451845597
47.0,1.5821079744461501e-27,1.5862403545812337e-27,4.132380135083584e-30,18.40190970110666,18.408439565379247,0.006529864272585772
48.0,1.5806713330078644e-27,1.6070937386842037e-27,2.6422405676339225e-29,18.402896057458737,18.444685905108564,0.04178984764982728
49.0,1.5775558471825221e-27,1.5874031936514416e-27,9.847346468919527e-30,18.40503814329375,18.420643528178392,0.015605384884640784
50.0,1.5726435962069624e-27,1.557013844118011e-27,1.5629752088951477e-29,18.408424222905342,18.383577919320334,0.024846303585009125
51.0,1.5659557636095384e-27,1.5644849082280932e-27,1.4708553814452186e-30,18.413051276020266,18.410703100842483,0.002348175177782301
52.0,1.5575439346570483e-27,1.5468620656488557e-27,1.0681869008192639e-29,18.41889923517116,18.40175386165952,0.017145373511638137
53.0,1.548038895727909e-27,1.5537285997406923e-27,5.689704012783282e-30,18.42554532879078,18.43473389638505,0.009188567594272083
54.0,1.5401724061689826e-27,1.5371043675454929e-27,3.06803862348975e-30,18.431076654309916,18.426096629652935,0.004980024656981706
55.0,1.5353914357638567e-27,1.5447327268680355e-27,9.341291104178787e-30,18.43445221541722,18.449662165933084,0.015209950515862259
56.0,1.5322021476398598e-27,1.5090556791255298e-27,2.3146468514329975e-29,18.43670983314729,18.39894316418983,0.03776666895746072
57.0,1.5292963457804603e-27,1.537577115937969e-27,8.280770157508589e-30,18.43877087301831,18.452307768892606,0.013536895874296007
58.0,1.5263015844394461e-27,1.5022157588694886e-27,2.4085825569957575e-29,18.440899112353392,18.401447823998076,0.039451288355314466
59.0,1.5229862901093978e-27,1.5440791878615964e-27,2.1092897752198505e-29,18.443260015390415,18.47788425641146,0.03462424102104586
60.0,1.5187696720238187e-27,1.4976242177325946e-27,2.114545429122404e-29,18.44627020944063,18.411463328119634,0.03480688132099535
61.0,1.5135891578606855e-27,1.5161049359061322e-27,2.5157780454467767e-30,18.4499799796716,18.454135298227467,0.004155318555866557
62.0,1.5088291872368828e-27,1.5268434479106564e-27,1.801426067377356e-29,18.453399808512287,18.48324788678741,0.029848078275121148
63.0,1.5051527394102888e-27,1.506761812630559e-27,1.609073220270232e-30,18.456048566591885,18.45872117445775,0.002672607865864595
64.0,1.5011290086304729e-27,1.5016514616343378e-27,5.224530038650311e-31,18.458954956052846,18.459825056158934,0.000870100106088952
65.0,1.495865019391087e-27,1.4763874562564927e-27,1.9477563134594273e-29,18.46276898405724,18.43021664330105,0.03255234075619151
66.0,1.4901317325337122e-27,1.4791265476609843e-27,1.1005184872727959e-29,18.466938342084077,18.448474899167497,0.018463442916579496
67.0,1.4845163544182896e-27,1.4700950081713321e-27,1.442134624695747e-29,18.471037533912682,18.44675126349869,0.024286270413990323
68.0,1.4787547633658149e-27,1.476910889401375e-27,1.8438739644399547e-30,18.475259608530212,18.472142333762754,0.0031172747674588835
69.0,1.472773317624162e-27,1.4542170420778169e-27,1.855627554634517e-29,18.47966023146916,18.448161365818404,0.031498865650756845
70.0,1.4673834248879066e-27,1.4590316618836748e-27,8.351763004231774e-30,18.48364097722625,18.46941197125791,0.014229005968344243
71.0,1.4630186008333909e-27,1.4643543769833954e-27,1.3357761500044944e-30,18.48687538053781,18.48915794917577,0.002282568637957825
72.0,1.4591448617709194e-27,1.4538896322044585e-27,5.255229566460894e-30,18.489753974610604,18.48075002012989,0.009003954480713422
73.0,1.4552254711446937e-27,1.4364740438417318e-27,1.875142730296197e-29,18.492674280805666,18.460460325520422,0.03221395528524512
74.0,1.4506924756577093e-27,1.4406487182428314e-27,1.004375741487792e-29,18.49606160377786,18.478753046686318,0.017308557091544025
75.0,1.4453773760363122e-27,1.4456933831912833e-27,3.160071549712227e-31,18.50004686854393,18.500593450980134,0.000546582436203989
76.0,1.4400228727284118e-27,1.4565564854367366e-27,1.6533612708324815e-29,18.504076524239576,18.532780257043832,0.028703732804255
77.0,1.4352360467617042e-27,1.4398285312401216e-27,4.592484478417412e-30,18.507691666531187,18.515691194707717,0.007999528176531219
78.0,1.4314109915199497e-27,1.4402975120245971e-27,8.886520504647354e-30,18.510589130621078,18.526109691377727,0.015520560756647477
79.0,1.4286628762461863e-27,1.4307164162472144e-27,2.053540001028117e-30,18.51267560062412,18.51626906559611,0.003593464971987997
80.0,1.4266961123186062e-27,1.4261944225325192e-27,5.01689786086948e-31,18.514171305471493,18.513292194317838,0.0008791111536563014
81.0,1.4252630332148022e-27,1.4222970881267441e-27,2.9659450880580315e-30,18.51526244732792,18.510059995185863,0.005202452142058456
82.0,1.424365447158268e-27,1.4129718924325245e-27,1.1393554725743437e-29,18.515946425409567,18.49594882797333,0.019997597436238294
83.0,1.4238882211903427e-27,1.4236844217976173e-27,2.037993927254445e-31,18.516310256427726,18.515952434462328,0.000357821965398155
84.0,1.423172889440159e-27,1.4497874892356977e-27,2.6614599795538694e-29,18.516855844713845,18.563608069958256,0.04675222524441183
85.0,1.421807357438403e-27,1.4094012162370812e-27,1.2406141201321957e-29,18.51789810688672,18.496084073613474,0.02181403327324431
86.0,1.419898213983323e-27,1.4471006867240908e-27,2.720247274076797e-29,18.51935696772152,18.567252078217603,0.04789511049608143
87.0,1.417562397660406e-27,1.4100358541074124e-27,7.526543552993609e-30,18.521144538559984,18.507870795609733,0.013273742950249804
88.0,1.4146977850723792e-27,1.421876009727374e-27,7.178224654994817e-30,18.523340816062284,18.53602590105135,0.012685084989066344
89.0,1.4112920372731512e-27,1.4083976686523905e-27,2.894368620760755e-30,18.52595777204058,18.520830610998928,0.005127161041652925
90.0,1.4075986247048315e-27,1.4334173859299349e-27,2.581876122510329e-29,18.528802915410868,18.57465895841197,0.045856043001103027
91.0,1.4037641662614687e-27,1.4233056464598433e-27,1.954148019837468e-29,18.53176461992836,18.56656654867829,0.03480192874993013
92.0,1.3995908825380945e-27,1.416852268799111e-27,1.7261386261016655e-29,18.53499723834416,18.565830152584276,0.030832914240113356
93.0,1.3948388669889101e-27,1.3935773034541173e-27,1.2615635347928387e-30,18.538689898931946,18.536428771204847,0.0022611277270976507
94.0,1.3889759711011005e-27,1.366603436576522e-27,2.2372534524578482e-29,18.543263168428574,18.50299513105777,0.04026803737080279
95.0,1.3819457754307048e-27,1.3651541064662138e-27,1.6791668964491068e-29,18.548772493513873,18.51839563419163,0.030376859322243824
96.0,1.3749907298468795e-27,1.3972838759451775e-27,2.2293146098297935e-29,18.554250574565966,18.594783840744388,0.040533266178420936
97.0,1.3689282929084777e-27,1.3873958070439732e-27,1.8467514135495567e-29,18.559048251121904,18.59277447738073,0.0337262262588254
98.0,1.363574573138045e-27,1.3472050676322458e-27,1.636950550579916e-29,18.563302764370533,18.53329064433641,0.03001212003412363
99.0,1.3585307859302342e-27,1.3640847898387354e-27,5.554003908501245e-30,18.567326288757243,18.57754689613328,0.010220607376037897
100.0,1.352953260318253e-27,1.3751167742936734e-27,2.2163513975420432e-29,18.571793016149122,18.612746969669672,0.04095395352055057
101.0,1.3465534791900157e-27,1.346099537380604e-27,4.5394180941174815e-31,18.57694098410146,18.576098199510227,0.0008427845912306525
102.0,1.3405306242579605e-27,1.3119569725312974e-27,2.857365172666306e-29,18.581808150408776,18.52852020008224,0.05328795032653537
103.0,1.3355933509364561e-27,1.3266924515456936e-27,8.900899390762542e-30,18.585814379215616,18.56915343338109,0.016660945834526736
104.0,1.3310543016208942e-27,1.3264596387280883e-27,4.594662892805874e-30,18.589510566772997,18.580880823254624,0.008629743518372455
105.0,1.3264343093105307e-27,1.3186623858062131e-27,7.771923504317426e-30,18.593285633164502,18.578637483139723,0.014648150024778095
106.0,1.3221472734910398e-27,1.312479129697509e-27,9.668143793530654e-30,18.596800415639347,18.578519275581474,0.018281140057874526
107.0,1.3185872841806315e-27,1.306980554484972e-27,1.1606729695659437e-29,18.59972779174624,18.577721797461848,0.022005994284390217
108.0,1.3161607254616143e-27,1.3302887241887705e-27,1.412799872715622e-29,18.601727681974435,18.62856330784794,0.02683562587350632
109.0,1.3149863739202413e-27,1.3119668406203031e-27,3.019533299938242e-30,18.602696868433476,18.59695625134454,0.005740617088936823
110.0,1.3146223198272506e-27,1.2995345321661621e-27,1.5087787661088444e-29,18.60299749621336,18.574305248573992,0.028692247639365866
111.0,1.3147978718337553e-27,1.3157887041333482e-27,9.908322995929603e-31,18.602852518875647,18.60473652006096,0.0018840011853134533
112.0,1.31592797589725e-27,1.3142793670779462e-27,1.6486088193038446e-30,18.60191970029752,18.598787673223278,0.0031320270742396824
113.0,1.3180216402503699e-27,1.3246946317722484e-27,6.672991521878518e-30,18.60019364779172,18.612850859399813,0.012657211608094165
114.0,1.319635234397364e-27,1.3187198548629785e-27,9.153795343855138e-31,18.59886524316065,18.597131090588547,0.0017341525720998554
115.0,1.3199371085664352e-27,1.320790029810228e-27,8.52921243792761e-31,18.598616903146823,18.60023236125891,0.0016154581120897242
116.0,1.3197270339299035e-27,1.3439138627160647e-27,2.4186828786161225e-29,18.598789717282827,18.644607579924728,0.045817862641900485
117.0,1.3195790822572043e-27,1.328351334262747e-27,8.772252005542637e-30,18.59891144358566,18.61553085678244,0.01661941319677725
118.0,1.3190479746678703e-27,1.313886697698721e-27,5.1612769691493216e-30,18.599348521455102,18.58956632045053,0.00978220100457094
119.0,1.3177600845583129e-27,1.3443479949230677e-27,2.658791036475476e-29,18.600409128825433,18.65085061410852,0.050441485283086444
120.0,1.3155948505291425e-27,1.3070364930228917e-27,8.558357506250784e-30,18.602194587728615,18.585931302905767,0.016263284822847526
121.0,1.3125889999625838e-27,1.3362464559583403e-27,2.3657455995756426e-29,18.604678099077002,18.64973686460915,0.045058765532148284
122.0,1.3090208332384681e-27,1.2906301482144246e-27,1.839068502404345e-29,18.607633603851312,18.57251062384009,0.03512298001122256
123.0,1.3051541022866041e-27,1.2915532038556065e-27,1.3600898430997565e-29,18.610845518091004,18.584793233523285,0.02605228456771706
124.0,1.301257325316769e-27,1.3156631392381496e-27,1.4405813921380745e-29,18.61409203162725,18.64176875175229,0.027676720125041167
125.0,1.29753744147837e-27,1.2906277464748268e-27,6.90969500354324e-30,18.617200253462062,18.60388715978426,0.013313093677802795
126.0,1.2942520196648318e-27,1.2902613201206767e-27,3.990699544155189e-30,18.619952871585554,18.612244366048145,0.007708505537408099
127.0,1.2914020100184007e-27,1.2761532000503188e-27,1.5248809968081846e-29,18.62234635491678,18.59282648068361,0.029519874233168823
128.0,1.2882759705161284e-27,1.2899323064855462e-27,1.6563359694178733e-30,18.62497773445489,18.628191983589637,0.003214249134745343
129.0,1.284607428593057e-27,1.2865723143211926e-27,1.9648857281355036e-30,18.6280739272207,18.63189783031436,0.003823903093662453
130.0,1.2815001015382978e-27,1.280127360321161e-27,1.3727412171366859e-30,18.630703387672185,18.628025390972283,0.002677996699900498
131.0,1.2796889132161107e-27,1.2879628321860514e-27,8.273918969940673e-30,18.63223898153231,18.648402907945385,0.016163926413073865
132.0,1.2790112234981546e-27,1.2820456110648755e-27,3.034387566720856e-30,18.63281411127809,18.63874523117558,0.005931119897489379
133.0,1.2789913130599727e-27,1.2866710832892216e-27,7.679770229248839e-30,18.632831013124967,18.647842393872494,0.015011380747526488
134.0,1.2783309158981146e-27,1.2736390046232867e-27,4.6919112748278915e-30,18.633391769306535,18.624215915041265,0.009175854265269616
135.0,1.2765064256286222e-27,1.2781610493852801e-27,1.6546237566579617e-30,18.634942486798696,18.63818301838443,0.003240531585736307
136.0,1.2751141219285845e-27,1.2654089185011168e-27,9.705203427467774e-30,18.636127361004718,18.617099253518955,0.019028107485761447
137.0,1.2753757843100108e-27,1.274372649767012e-27,1.003134542998703e-30,18.635904583160155,18.633938232231785,0.00196635092836855
138.0,1.2776919121676907e-27,1.2868385011909083e-27,9.146589023217584e-30,18.633934635741,18.651831338647455,0.01789670290645375
139.0,1.282030686874523e-27,1.275751211350598e-27,6.2794755239249784e-30,18.63025394839095,18.61800877440991,0.012245173981041323
140.0,1.2877902657779822e-27,1.2867819254120622e-27,1.0083403659199816e-30,18.62538715500305,18.62342965386192,0.001957501141132677
141.0,1.2943008136287688e-27,1.2915775881084708e-27,2.7232255202979442e-30,18.61991193954619,18.614651907466275,0.005260032079913031
142.0,1.3005148488466098e-27,1.2626027690807606e-27,3.791207976584913e-29,18.614711712024107,18.541832729136154,0.07287898288795451
143.0,1.3056630559239699e-27,1.306471249635203e-27,8.081937112330977e-31,18.610422210471857,18.611969688030417,0.0015474775585596406
144.0,1.3090996623736764e-27,1.2976938869115727e-27,1.1405775462103715e-29,18.607568222868085,18.585786505650653,0.021781717217432123
145.0,1.3107793950812405e-27,1.2979207042291198e-27,1.2858690852120623e-29,18.606175985421377,18.58165109034679,0.02452489507458968
146.0,1.3120559411823523e-27,1.293861851351269e-27,1.819408983108331e-29,18.60511911966294,18.57045198150973,0.034667138153209764
147.0,1.3137767512114236e-27,1.3169589338396793e-27,3.182182628255746e-30,18.603696069349827,18.609751479116596,0.006055409766768744
148.0,1.3153532294405775e-27,1.3247256049085176e-27,9.37237546794012e-30,18.602394011477354,18.620207430827694,0.017813419350340996
149.0,1.3164560213272266e-27,1.3140229544955414e-27,2.4330668316851662e-30,18.601484111835216,18.596863625483472,0.004620486351743436
150.0,1.3179609358176605e-27,1.3485069263078709e-27,3.054599049021032e-29,18.600243654951086,18.658185414945777,0.05794175999469143
