time [days],flux [fnu],noisy_flux [fnu],error [fnu],flux [mag],noisy_flux [mag],error [mag]
0.0,1.6634828111018013e-27,1.63918327425119e-27,2.4299536850611316e-29,18.347454205927185,18.310935137788277,0.03651906813890762
1.0,1.668348044940995e-27,1.6378450090398566e-27,3.0503035901138354e-29,18.344283358122166,18.2985749161792,0.04570844194296575
2.0,1.673106819630806e-27,1.6601484924948933e-27,1.2958327135912536e-29,18.34119082647138,18.32182815490751,0.01936267156386938
3.0,1.677097621689233e-27,1.6530847760614054e-27,2.4012845627827506e-29,18.33860414234138,18.302808901030918,0.03579524131046245
4.0,1.6804866182412026e-27,1.655125174520001e-27,2.536144372120165e-29,18.33641235369757,18.29868303850114,0.03772931519642945
5.0,1.683357188877591e-27,1.669735363051612e-27,1.3621825825978807e-29,18.33455930498097,18.314329157279726,0.020230147701245458
6.0,1.6850954424500753e-27,1.6975450085347554e-27,1.2449566084680035e-29,18.333438740014934,18.35190886012068,0.018470120105747185
7.0,1.6851157402139393e-27,1.6753582729066114e-27,9.757467307327887e-30,18.333425661892576,18.31894970176344,0.014475960129137919
8.0,1.6824373216071186e-27,1.6672715126121903e-27,1.5165808994928297e-29,18.33515276558642,18.312617291604482,0.022535473981939228
9.0,1.6768956475500885e-27,1.672053490245053e-27,4.842157305035399e-30,18.33873490625051,18.331515975674673,0.007218930575837702
10.0,1.6705454924260155e-27,1.6491818673413643e-27,2.136362508465138e-29,18.34285423280845,18.310883201218005,0.03197103159044548
11.0,1.6649662955869568e-27,1.6730967672695028e-27,8.130471682545951e-30,18.34648638405594,18.3586945466237,0.012208162567758894
12.0,1.6606994500341358e-27,1.6772293514774504e-27,1.6529901443314547e-29,18.34927239539509,18.374156340293993,0.024883944898902048
13.0,1.6577482392550696e-27,1.657264864239645e-27,4.8337501542463915e-31,18.35120356173278,18.350474598486162,0.0007289632466173662
14.0,1.655142912701483e-27,1.676747794907209e-27,2.1604882205726191e-29,18.352911253182842,18.385544208983717,0.03263295580087287
15.0,1.652476278253645e-27,1.6489661483143755e-27,3.51012993926968e-30,18.354661915532407,18.349351506563966,0.005310408968441023
16.0,1.6513136517408293e-27,1.6551971993160866e-27,3.883547575257215e-30,18.355426071714515,18.3613055537426,0.005879482028085859
17.0,1.652361909180882e-27,1.6882514677874745e-27,3.5889558606592714e-29,18.354737062717234,18.40903745297554,0.05430039025830619
18.0,1.6535284339538946e-27,1.666463486764939e-27,1.2935052811044375e-29,18.353970831474875,18.373527575322505,0.019556743847631113
19.0,1.6533655137742874e-27,1.6447365955727518e-27,8.628918201535429e-30,18.354077813035467,18.34103030761448,0.01304750542098434
20.0,1.6524013603890234e-27,1.65450357738508e-27,2.102216996056599e-30,18.354711140373333,18.357891688765584,0.003180548392252709
21.0,1.6511707850239132e-27,1.624169695466971e-27,2.7001089556942043e-29,18.355520010426453,18.314638276989424,0.04088173343702753
22.0,1.649688243296149e-27,1.6328511792205155e-27,1.6837064075633546e-29,18.35649530159964,18.330979777463405,0.0255155241362337
23.0,1.6481241509472576e-27,1.654860813323708e-27,6.736662376450125e-30,18.357525191487305,18.367743873090536,0.010218681603230915
24.0,1.6475213293122462e-27,1.6589774839291752e-27,1.1456154616928992e-29,18.357922385472737,18.375306310058573,0.017383924585837283
25.0,1.6485703507095684e-27,1.6361401740819697e-27,1.2430176627598742e-29,18.357231287857942,18.338381354304534,0.0188499335534098
26.0,1.6513003490992826e-27,1.6564294496171523e-27,5.129100517869884e-30,18.355434818216246,18.36320006292274,0.007765244706493886
27.0,1.655446320442906e-27,1.6492293733819002e-27,6.2169470610057184e-30,18.352712242827046,18.343323616049734,0.009388626777312852
28.0,1.6600753411322565e-27,1.6627891386713994e-27,2.713797539142882e-30,18.34968050355122,18.35376736255078,0.004086858999561931
29.0,1.6645153231876567e-27,1.665965337930832e-27,1.4500147431750951e-30,18.34678050615682,18.34895833943203,0.0021778332752116413
30.0,1.6686783090701635e-27,1.647309188891447e-27,2.136912017871643e-29,18.34406844838798,18.3120534098054,0.03201503858257726
31.0,1.6724392997735123e-27,1.6462216004603448e-27,2.621769931316745e-29,18.341624089358938,18.302433280884276,0.03919080847466025
32.0,1.675048237642006e-27,1.7008417272921826e-27,2.5793489650176885e-29,18.33993170434381,18.37842834144139,0.03849663709757819
33.0,1.675907069219949e-27,1.6611413640039043e-27,1.4765705216044647e-29,18.33937516779051,18.317348729858427,0.022026437932082574
34.0,1.6743697347738536e-27,1.682746027422333e-27,8.37629264847942e-30,18.340371586821988,18.352878222116626,0.012506635294639317
35.0,1.6703262076921714e-27,1.6780503431076727e-27,7.72413541550141e-30,18.342996761702935,18.354557580451885,0.011560818748951986
36.0,1.6649101313447587e-27,1.683820893211188e-27,1.891076186642919e-29,18.34652300977014,18.37491907978978,0.028396070019639504
37.0,1.6590923909108164e-27,1.642716642839162e-27,1.6375748071654323e-29,18.350323571187598,18.32564780846129,0.02467576272630647
38.0,1.6535118063404256e-27,1.6370649666629943e-27,1.644683967743146e-29,18.35398174951677,18.32911522057158,0.024866528945190636
39.0,1.6486476629221347e-27,1.6531738434150313e-27,4.52618049289661e-30,18.357180371802098,18.364043846325323,0.006863474523225617
40.0,1.6452190440711034e-27,1.67899858333361e-27,3.377953926250662e-29,18.35944068000184,18.410770530857015,0.05132985085517696
41.0,1.6436231018449076e-27,1.652778352741627e-27,9.155250896719446e-30,18.360494407918736,18.37441981893061,0.013925411011872198
42.0,1.643809691899155e-27,1.6798849564192203e-27,3.6075264520065406e-29,18.360371158203666,18.415236488262625,0.05486533005895941
43.0,1.645442793519386e-27,1.674254385761797e-27,2.881159224241109e-29,18.35929303014345,18.403067861386273,0.04377483124282139
44.0,1.6474002811413723e-27,1.6874138109360022e-27,4.001352979462983e-29,18.358002160591695,18.41872439405961,0.06072223346791461
45.0,1.6488750291177765e-27,1.6734916908636358e-27,2.461666174585943e-29,18.35703064745823,18.394354066927793,0.03732341946956172
46.0,1.649683911953587e-27,1.6503067813637554e-27,6.228694101683901e-31,18.356498152260453,18.357442074616813,0.0009439223563603411
47.0,1.6497240286531208e-27,1.6296907409770923e-27,2.0033287676028659e-29,18.356471749855,18.326113206049975,0.030358543805027158
48.0,1.648588825653344e-27,1.6294882919472415e-27,1.9100533706102364e-29,18.35721912046519,18.32825414537728,0.02896497508791
49.0,1.6460181949496413e-27,1.6374012431356164e-27,8.616951814024872e-30,18.358913421104393,18.345825850383026,0.01308757072136815
50.0,1.6418660626998617e-27,1.6545918660382762e-27,1.2725803338414606e-29,18.36165568473279,18.381032727153485,0.019377042420696107
51.0,1.636107868067064e-27,1.6627501459994586e-27,2.66422779323945e-29,18.365470167062135,18.406180010301064,0.040709843238927616
52.0,1.628746255255505e-27,1.6151466454396481e-27,1.359960981585694e-29,18.370366424474277,18.34949207131464,0.020874353159638634
53.0,1.6202674321077105e-27,1.6148407777507696e-27,5.426654356940903e-30,18.37603324342261,18.367660159064123,0.008373084358490265
54.0,1.6129575310837368e-27,1.6180047580079494e-27,5.047226924212436e-30,18.380942668413525,18.388765606753417,0.007822938339891122
55.0,1.6081054471029566e-27,1.616828689691543e-27,8.723242588586415e-30,18.384213692461646,18.39777505842229,0.013561365960642634
56.0,1.6045502104238465e-27,1.597542209451053e-27,7.008000972793538e-30,18.386616720464787,18.375697771142935,0.010918949321851317
57.0,1.6012665301826924e-27,1.6016707873755185e-27,4.042571928260532e-31,18.388840934796406,18.389472087051832,0.00063115225542735
58.0,1.5979899563840145e-27,1.6229194892331297e-27,2.492953284911523e-29,18.391064886554926,18.43006627819309,0.03900139163816557
59.0,1.5945270536586021e-27,1.5918368071727777e-27,2.6902464858243757e-30,18.39342026967442,18.389202331697682,0.004217937976736853
60.0,1.5903626224604323e-27,1.606269319806268e-27,1.5906697345835676e-29,18.396259599610897,18.421264427316835,0.02500482770593948
61.0,1.5853945224658366e-27,1.5962369295820237e-27,1.0842407116187126e-29,18.399656616565977,18.416753949378954,0.01709733281297616
62.0,1.5807562929343964e-27,1.5647168939221858e-27,1.6039399012210634e-29,18.402837701501166,18.377471047760956,0.025366653740211128
63.0,1.5770211874625305e-27,1.5487120296932308e-27,2.8309157769299614e-29,18.405406179587935,18.3605285996379,0.044877579950035114
64.0,1.5729976335818582e-27,1.5767386430183908e-27,3.7410094365325556e-30,18.40817982682244,18.41412549602859,0.005945669206148038
65.0,1.5679273911329044e-27,1.567662899324529e-27,2.644918083754688e-31,18.41168513212711,18.411263410097966,0.0004217220291437739
66.0,1.56244903698606e-27,1.5543804258228154e-27,8.068611163244535e-30,18.415485348266422,18.402575149321937,0.012910198944486473
67.0,1.5570451669763756e-27,1.5362194374955876e-27,2.082572948078803e-29,18.419246972940496,18.38580907094111,0.0334379019993837
68.0,1.5514799795820743e-27,1.5424952220629536e-27,8.984757519120744e-30,18.4231345605333,18.408656839845047,0.014477720688250501
69.0,1.5456828952838327e-27,1.5457588016789913e-27,7.590639515871946e-32,18.427198997509468,18.427321769126127,0.0001227716166594132
70.0,1.5403479102591886e-27,1.534926093302846e-27,5.421816956342548e-30,18.43095294069958,18.4221532777789,0.00879966292068108
71.0,1.5358688455886098e-27,1.5546663761655677e-27,1.8797530576958036e-29,18.434114672462247,18.464712224185085,0.030597551722839376
72.0,1.5318155110006824e-27,1.5283093726118484e-27,3.506138388833843e-30,18.436983842925454,18.43126164863434,0.0057221942911117995
73.0,1.5277506852665853e-27,1.5123764561992848e-27,1.5374229067300542e-29,18.439868782017502,18.4147105064959,0.025158275521600913
74.0,1.5232095444415226e-27,1.5369610422467068e-27,1.37514978051841e-29,18.443100869147127,18.465670806841132,0.022569937694005886
75.0,1.5180321831303216e-27,1.5142664134399256e-27,3.765769690396077e-30,18.446797552643247,18.440595823634723,0.006201729008522591
76.0,1.5128134561459403e-27,1.5122456209026378e-27,5.678352433025614e-31,18.4505365529777,18.449598176800194,0.0009383761775050317
77.0,1.508051068897758e-27,1.488868740062571e-27,1.918232883518702e-29,18.453959877987636,18.42216001187102,0.03179986611661546
78.0,1.504084791385949e-27,1.4878520487583855e-27,1.6232742627563555e-29,18.456819200263464,18.42983810398397,0.026981096279495295
79.0,1.5010420737177963e-27,1.4984491399554992e-27,2.5929337622972168e-30,18.45901783613501,18.454699280033722,0.004318556101287375
80.0,1.4987033535367914e-27,1.4990940383347906e-27,3.906847979992535e-31,18.46071080225456,18.461362506938276,0.0006517046837142188
81.0,1.496880053610517e-27,1.5019918724277754e-27,5.111818817258366e-30,18.462032496707685,18.47056995233903,0.008537455631345536
82.0,1.4955851853548748e-27,1.4917537805647763e-27,3.831404790098419e-30,18.462972113592777,18.456567589083548,0.0064045245092296385
83.0,1.4947266912170087e-27,1.4567180222934355e-27,3.8008668923573266e-29,18.46359552561876,18.40002425679264,0.0635712688261199
84.0,1.4937492282045748e-27,1.4622511281472837e-27,3.149810005729107e-29,18.46430576525119,18.411589252561924,0.05271651268926594
85.0,1.4922877401722085e-27,1.491099654408605e-27,1.1880857636035815e-30,18.46536857231826,18.46337819584524,0.0019903764730159843
86.0,1.490406373303059e-27,1.49087026516885e-27,4.638918657909728e-31,18.46673825242454,18.46751638225896,0.0007781298344204094
87.0,1.4881793723820453e-27,1.4710015314506859e-27,1.7177840931359332e-29,18.468361798754895,18.43950465752221,0.02885714123268576
88.0,1.4854965227983595e-27,1.492153921315526e-27,6.657398517166474e-30,18.47032090110358,18.481524896560643,0.011203995457063324
89.0,1.4823282286854141e-27,1.4932805234234131e-27,1.0952294737998948e-29,18.472639052086592,18.491110492024884,0.01847143993829198
90.0,1.4788773841621802e-27,1.483315456039904e-27,4.438071877723942e-30,18.47516958121681,18.482672015031223,0.007502433814413588
91.0,1.4752660916776429e-27,1.4940755388161996e-27,1.8809447138556693e-29,18.47782409883359,18.50969876748602,0.03187466865243098
92.0,1.4713259661281807e-27,1.4893407512954388e-27,1.8014785167258032e-29,18.48072775120633,18.511337530381685,0.03060977917535202
93.0,1.46685442730879e-27,1.4603812057622185e-27,6.473221546571379e-30,18.484032460029642,18.472999972030053,0.011032487999589155
94.0,1.461400467859113e-27,1.4674075066020164e-27,6.0070387429033955e-30,18.48807689488462,18.49835306297649,0.010276168091870536
95.0,1.4548906943892264e-27,1.4483715694134628e-27,6.519124975763536e-30,18.492924084748097,18.481721997538205,0.011202087209892273
96.0,1.448350109773036e-27,1.4401399104749156e-27,8.210199298120236e-30,18.497816108531936,18.48364446722311,0.014171641308824869
97.0,1.4424773341919214e-27,1.4385663509183876e-27,3.9109832735338644e-30,18.502227505591254,18.49544926516274,0.006778240428513916
98.0,1.437143761252938e-27,1.4056578298607254e-27,3.1485931392212527e-29,18.506249465196777,18.451477750214064,0.054771714982713875
99.0,1.4320508885749444e-27,1.4405111793950458e-27,8.460290820101317e-30,18.510103872258593,18.524873408187098,0.014769535928503701
100.0,1.4265147334268629e-27,1.4337584342571295e-27,7.243700830266647e-30,18.514309346184554,18.527004099103202,0.012694752918649107
101.0,1.4202815530419823e-27,1.4116766571695527e-27,8.604895872429516e-30,18.51906388409207,18.503917422719677,0.01514646137239375
102.0,1.4143458170330042e-27,1.4263115856824905e-27,1.196576864948629e-29,18.523610974107896,18.544761686517447,0.021150712409550444
103.0,1.4093117449392953e-27,1.4345290184307224e-27,2.521727349142702e-29,18.52748232181938,18.57221563505185,0.04473331323246942
104.0,1.4046176627083162e-27,1.3829323859243759e-27,2.168527678394036e-29,18.531104686858047,18.49250828201481,0.038596404843236586
105.0,1.3998735634767969e-27,1.3929985037845781e-27,6.875059692218854e-30,18.53477797002588,18.522499968869933,0.012278001155946554
106.0,1.3954385094376497e-27,1.3974409799151242e-27,2.002470477474563e-30,18.538223240289298,18.541810769341872,0.0035875290525727685
107.0,1.3916512185404977e-27,1.3983791240784936e-27,6.72790553799589e-30,18.541173989477382,18.553260181492238,0.012086192014856676
108.0,1.3888594584065477e-27,1.3835607564775692e-27,5.298701928978445e-30,18.543354248014865,18.533816382435834,0.00953786557903004
109.0,1.3871834004196711e-27,1.3902103010447982e-27,3.0269006251270985e-30,18.544665291936944,18.55012041168573,0.005455119748786203
110.0,1.3862789439728937e-27,1.398007911777196e-27,1.1728967804302318e-29,18.545373432897787,18.566525322738023,0.021151889840237772
111.0,1.385932874397401e-27,1.3862771209582603e-27,3.44246560859401e-31,18.545644509059375,18.546265474488543,0.0006209654291682025
112.0,1.386497032560983e-27,1.3800517404615503e-27,6.445292099432789e-30,18.545202638950908,18.53358109929365,0.011621539657260864
113.0,1.3879897948159196e-27,1.400828931793368e-27,1.2839136977448296e-29,18.544034317540483,18.567159734285983,0.023125416745501125
114.0,1.3891984389617782e-27,1.4013730203002578e-27,1.217458133847959e-29,18.543089283441095,18.564998646777944,0.02190936333685039
115.0,1.389391670505951e-27,1.3840918631722282e-27,5.2998073337227324e-30,18.54293827269429,18.533402071624735,0.009536201069552965
116.0,1.38920373423748e-27,1.3913751731214752e-27,2.17143888399521e-30,18.54308514489514,18.54699284905415,0.003907704159007122
117.0,1.3890897568375726e-27,1.39526528576926e-27,6.175528931687445e-30,18.54317422791683,18.554288572582625,0.011114344665795334
118.0,1.388648227719869e-27,1.3856526969902565e-27,2.9955307296125002e-30,18.54351938945133,18.538126499679436,0.005392889771895468
119.0,1.3875484082477034e-27,1.383220951079212e-27,4.32745716849142e-30,18.544379641111192,18.536582693014157,0.007796948097033324
120.0,1.3856807913162812e-27,1.383583034262195e-27,2.097757054086086e-30,18.5458420082505,18.54205730352768,0.003784704722819661
121.0,1.3830594656882264e-27,1.354758607248405e-27,2.830085843982124e-29,18.547897866673473,18.496741609220475,0.05115625745299825
122.0,1.3798943851975729e-27,1.3979168501823025e-27,1.8022464984729587e-29,18.550385381245423,18.5830372732635,0.0326518920180785
123.0,1.3763935437457357e-27,1.3809653086921163e-27,4.5717649463805476e-30,18.553143432982623,18.56144731701193,0.008303884029306919
124.0,1.3727883977913245e-27,1.3878740260617835e-27,1.5085628270459037e-29,18.5559909998684,18.58346360288342,0.027472603015020854
125.0,1.3692669551999472e-27,1.3647768349136238e-27,4.490120286323417e-30,18.558779681586426,18.550581644912,0.00819803667442582
126.0,1.3660614086033037e-27,1.3412122057979428e-27,2.4849202805360904e-29,18.561324443403937,18.515848444578292,0.04547599882564461
127.0,1.363197348860185e-27,1.3683771110166868e-27,5.179762156501801e-30,18.563603167976062,18.573102456836974,0.009499288860913599
128.0,1.360095093137461e-27,1.344646673894486e-27,1.544841924297514e-29,18.566076815506232,18.537680971493334,0.02839584401289692
129.0,1.3565247224520785e-27,1.3762441253816238e-27,1.9719402929545385e-29,18.56893071720218,18.6052724856255,0.03634176842332117
130.0,1.353413911062748e-27,1.3590600034683122e-27,5.646092405564249e-30,18.571423409836147,18.58185276252606,0.01042935268991498
131.0,1.3513970797696814e-27,1.354812390628343e-27,3.415310858661558e-30,18.573042559689522,18.57936067097929,0.006318111289769158
132.0,1.3503584039536482e-27,1.3560473355462827e-27,5.688931592634463e-30,18.573877370982263,18.584409633335685,0.010532262353420616
133.0,1.3499314644281355e-27,1.3568210579808903e-27,6.889593552754743e-30,18.574220699829578,18.586979854153892,0.0127591543243148
134.0,1.3490439380814595e-27,1.375221731543369e-27,2.6177793461909517e-29,18.574934763041195,18.623446514072704,0.04851175103150869
135.0,1.34722896873297e-27,1.3385196224775329e-27,8.709346255437031e-30,18.576396468364003,18.560234875833025,0.016161592530978458
136.0,1.3457984997835592e-27,1.3442983671046202e-27,1.5001326789390657e-30,18.577549900397194,18.574763204099085,0.0027866962981091294
137.0,1.3457752737607392e-27,1.3410613363964819e-27,4.7139373642574195e-30,18.577568638381724,18.568811720610668,0.00875691777105628
138.0,1.3475162397716922e-27,1.334786083482751e-27,1.2730156288941183e-29,18.576164980379527,18.55254716429462,0.02361781608490677
139.0,1.351046468486761e-27,1.3539405597213077e-27,2.8940912345466292e-30,18.57332428351391,18.578679560519642,0.005355277005734959
140.0,1.355909790673631e-27,1.3538242104519733e-27,2.0855802216576456e-30,18.569423008318168,18.56557765622321,0.0038453520949603627
141.0,1.3615763174912692e-27,1.3500117889811298e-27,1.1564528510139376e-29,18.56489502768218,18.543661314298696,0.021233713383483427
142.0,1.3671684484677964e-27,1.357054595727681e-27,1.0113852740115406e-29,18.560444932064186,18.541950772197765,0.01849415986641978
143.0,1.3720058222145777e-27,1.3610162183861607e-27,1.0989603828417078e-29,18.556610114156435,18.536585410816112,0.02002470334032288
144.0,1.3754992808425754e-27,1.3682539951699222e-27,7.245285672653222e-30,18.5538490808451,18.54068061581287,0.013168465032230065
145.0,1.3775379124764707e-27,1.3670871305803794e-27,1.0450781896091252e-29,18.55224109924353,18.533274684959327,0.018966414284205334
146.0,1.379191597083259e-27,1.381545801309141e-27,2.3542042258821066e-30,18.55093849377717,18.555205856322846,0.004267362545676799
147.0,1.3811550163681171e-27,1.3824555941724125e-27,1.300577804295319e-30,18.54939393719734,18.551748086059856,0.0023541488625138476
148.0,1.3829344030802956e-27,1.3733932604933611e-27,9.541142586934535e-30,18.547996048381634,18.53074804557383,0.017248002807803024
149.0,1.384257760138383e-27,1.3810760271210489e-27,3.181733017334184e-30,18.54695758289418,18.5412113029943,0.005746279899879537
150.0,1.3858733122456325e-27,1.3717466001897137e-27,1.4126712055918798e-29,18.545691170896657,18.520207759225663,0.025483411670992218
151.0,1.3882465050304379e-27,1.3728927492206564e-27,1.5353755809781558e-29,18.543833528022066,18.51618397919528,0.027649548826785848
